4
8
8
8
2
8
2
4
2
1
1
4
4
0
4
31
1
8
18
66
61
56
61
56
31
56
78
82
56
61
82
86
66
70
82
61
49
61
49
31
31
8
8
2
1
0
1
1
1
4
2
4
1
1
0
4
2
2
4
49
31
18
42
1
31
82
78
70
42
66
49
42
18
18
49
31
49
31
42
56
66
137
104
95
119
151
143
177
99
143
218
218
204
186
243
216
186
207
195
137
177
191
165
78
108
86
61
70
56
31
18
18
8
31
31
49
18
31
56
66
61
49
61
92
99
86
125
49
2
56
70
66
31
18
42
8
31
31
31
18
31
56
31
31
49
92
92
74
78
82
86
119
99
143
221
191
113
204
222
199
226
207
158
131
151
119
137
131
99
108
125
92
74
74
8
18
8
42
61
42
18
56
56
42
42
49
61
70
82
95
95
31
4
31
56
66
31
31
56
8
56
42
56
18
31
61
31
2
42
66
61
95
99
119
113
82
151
171
171
204
113
191
204
211
204
151
224
143
165
191
143
113
78
82
95
74
49
70
18
31
18
31
49
49
18
31
31
42
42
49
82
74
66
82
78
31
8
70
49
49
31
56
49
42
31
18
8
18
31
49
66
95
78
70
78
74
66
113
108
131
182
158
165
177
191
218
218
211
165
182
182
104
165
119
95
95
82
82
56
66
78
18
42
42
31
31
8
8
31
18
31
31
56
31
61
61
61
70
74
31
49
70
42
56
42
49
31
31
18
8
8
18
8
8
61
92
70
92
158
92
66
119
104
119
119
195
226
230
211
177
177
207
125
221
165
195
204
171
125
113
42
70
18
61
66
49
31
8
31
8
18
42
49
42
42
49
49
56
74
70
74
70
61
4
56
82
31
56
56
31
42
31
42
18
8
31
49
18
31
4
31
49
56
66
92
82
119
165
182
182
216
237
171
165
218
186
199
238
182
216
221
171
137
99
56
61
66
78
31
42
18
31
42
18
31
31
42
42
56
49
49
74
66
70
56
49
82
31
18
78
42
18
31
31
31
42
42
42
49
31
42
56
31
8
31
56
70
18
86
70
137
86
151
137
158
207
177
125
177
131
151
216
218
216
151
171
182
137
131
137
78
42
31
66
66
61
18
8
18
31
31
56
49
49
31
56
61
74
78
56
82
31
4
78
42
42
18
18
31
31
18
18
42
42
78
86
61
18
86
82
86
66
82
92
95
104
158
191
207
236
216
191
151
191
158
108
119
158
78
131
137
137
99
61
86
78
31
56
42
31
42
18
4
31
56
61
66
18
18
42
66
74
70
70
78
49
8
70
31
56
31
31
4
18
31
18
49
82
86
61
66
92
99
95
74
108
218
171
125
137
195
191
204
224
211
191
191
211
218
182
182
204
191
125
99
99
61
49
42
56
42
49
31
18
56
18
18
42
42
42
42
49
42
49
66
86
82
78
66
31
2
42
18
42
18
49
31
8
31
4
49
99
108
86
74
74
95
108
113
92
151
165
158
108
143
211
191
119
113
125
125
131
151
182
182
125
143
119
86
74
82
78
74
42
56
49
31
42
18
18
42
4
18
18
42
42
31
56
86
92
95
92
113
49
2
31
42
8
31
31
18
56
74
49
4
86
151
86
95
82
113
119
70
86
104
113
137
113
177
182
131
131
131
131
131
82
191
213
165
151
204
171
92
113
108
92
82
82
74
31
66
31
31
42
31
18
42
18
56
70
66
66
92
82
95
92
119
42
2
49
61
18
49
42
4
18
61
56
18
56
61
66
78
95
70
74
92
104
151
131
113
199
199
113
125
119
119
151
92
82
104
207
125
125
125
151
92
74
99
92
61
42
42
66
56
18
49
31
18
8
31
18
49
66
66
66
86
113
86
86
78
42
4
31
42
49
42
18
18
42
70
61
61
66
78
92
86
95
74
92
74
66
113
119
95
207
182
104
137
119
99
119
186
216
119
195
231
151
158
99
49
49
74
78
56
18
31
18
56
42
31
31
8
31
31
31
49
42
56
66
78
104
92
95
95
49
4
42
18
42
56
18
31
56
61
78
56
56
74
104
92
95
86
104
95
92
92
119
151
182
171
99
207
244
151
131
131
221
246
241
254
249
191
113
143
82
78
95
78
56
74
18
42
31
31
31
31
42
61
56
31
56
86
56
61
86
99
92
104
61
18
49
31
31
31
31
8
42
31
56
78
70
86
78
108
125
104
82
104
92
158
92
177
204
143
108
218
232
240
151
74
228
247
255
254
248
236
239
171
125
95
61
66
42
42
8
18
8
18
31
42
18
8
49
56
74
78
92
82
92
92
92
113
56
2
42
31
8
42
18
70
56
42
49
70
61
66
86
158
143
119
171
221
218
222
216
182
143
165
231
216
226
224
92
4
113
238
251
253
177
195
250
226
230
113
78
78
18
31
42
31
31
18
18
18
42
42
61
78
74
78
119
131
113
131
92
104
61
2
18
18
18
31
8
61
61
56
56
61
82
70
92
171
199
211
182
199
186
137
158
158
143
228
252
247
240
236
158
92
171
240
253
254
251
252
232
227
216
66
56
56
61
42
31
31
42
18
18
18
42
49
42
66
56
74
92
95
104
108
108
119
56
4
31
18
31
31
42
18
31
56
42
61
56
125
78
137
186
171
137
165
182
143
177
143
108
195
177
234
242
213
246
237
204
227
250
245
248
249
218
95
211
191
195
108
66
66
42
42
31
8
18
42
31
56
49
42
78
92
82
92
104
104
108
119
61
2
56
31
31
8
42
42
49
49
49
70
70
119
158
213
177
177
104
143
165
125
171
177
151
171
213
143
238
158
195
234
78
218
248
244
250
254
251
243
222
227
237
92
49
49
31
8
18
42
49
18
8
31
56
56
42
74
86
86
95
99
125
125
56
2
49
49
42
31
31
18
31
56
49
49
92
131
195
177
125
131
131
158
137
113
137
186
182
165
234
242
235
86
104
207
131
186
251
251
254
254
243
241
82
70
49
8
56
31
31
42
18
31
31
18
56
49
56
92
56
70
92
104
125
95
108
137
66
1
31
31
42
18
8
18
4
31
31
61
119
195
137
125
119
104
131
137
151
99
119
186
195
125
228
239
137
119
113
211
108
66
243
250
244
247
222
191
99
18
8
8
42
18
18
42
18
18
18
8
42
31
61
92
74
95
99
95
99
108
125
104
56
2
31
31
42
31
8
42
31
56
49
137
211
199
158
119
113
137
151
113
86
113
119
177
151
151
211
191
182
186
237
241
207
195
243
245
252
242
242
231
92
42
18
4
18
18
18
8
18
42
18
8
8
42
74
74
70
82
95
82
92
70
131
119
42
4
49
31
31
42
18
31
31
42
119
222
177
186
182
186
131
131
137
177
158
108
151
165
119
86
186
143
143
238
199
151
216
95
242
255
255
249
240
236
42
31
18
31
31
49
31
18
42
31
31
61
49
49
61
31
74
78
70
78
99
99
119
151
66
18
61
31
31
31
31
31
8
56
199
199
104
108
119
119
158
158
125
131
104
131
108
119
104
119
113
158
236
186
151
119
177
82
222
255
255
186
151
143
8
31
18
42
42
18
31
18
31
18
8
49
61
42
31
18
42
74
82
125
99
125
137
137
70
2
42
49
42
18
42
42
4
158
158
108
113
113
119
108
113
104
137
125
113
143
104
108
171
137
143
239
218
119
151
113
99
213
239
247
234
191
182
42
18
31
56
42
31
18
31
56
66
8
18
31
61
49
49
66
82
61
86
108
99
119
143
131
66
8
49
18
42
61
49
18
42
204
104
137
182
207
125
165
177
119
131
143
95
125
151
131
119
113
232
211
131
151
108
82
104
131
204
108
104
143
177
31
49
8
31
42
49
49
31
31
42
61
66
66
61
49
42
66
82
74
74
92
113
119
143
165
66
2
42
42
56
42
8
31
49
165
104
104
113
158
108
125
131
104
158
158
108
119
158
171
165
207
207
99
119
137
119
104
177
234
230
222
158
131
191
108
31
8
8
31
31
31
49
61
31
74
113
99
66
56
82
74
74
66
56
82
119
125
108
125
66
4
42
66
56
31
18
42
42
61
143
131
125
131
86
104
92
137
199
158
125
99
92
177
211
158
104
125
99
125
151
131
131
238
245
236
221
137
151
82
49
42
18
18
18
8
49
56
61
92
104
70
61
56
56
49
42
74
74
82
92
125
131
119
56
4
42
49
31
31
49
31
31
31
66
119
137
131
151
125
74
113
186
171
151
182
239
226
165
99
108
137
131
119
131
119
165
171
143
226
221
195
113
4
42
42
42
31
42
18
2
18
42
119
113
108
78
70
18
56
61
78
82
104
99
99
113
125
49
8
49
18
8
8
42
42
18
18
31
70
177
151
119
86
92
113
165
165
137
204
248
251
243
165
119
99
151
143
137
113
182
235
199
158
171
221
143
1
42
42
49
31
18
31
49
56
49
143
221
207
42
66
56
56
78
86
86
86
86
104
99
119
49
1
42
42
31
42
49
31
18
31
42
18
171
143
108
92
92
82
99
99
108
213
231
246
235
151
86
165
207
131
125
104
95
234
228
226
158
151
207
31
18
42
49
31
31
42
74
56
49
125
207
137
31
56
49
70
70
61
70
86
113
108
82
119
61
2
31
31
56
42
31
31
31
18
31
49
191
125
119
78
119
119
143
151
137
125
182
236
199
182
171
177
137
204
131
104
158
232
226
195
61
125
221
108
8
61
42
8
49
31
42
49
74
108
137
151
42
18
42
66
78
56
78
104
99
92
78
119
56
2
42
18
56
49
18
18
49
49
8
56
165
99
108
95
125
131
104
119
131
99
137
195
182
204
218
104
151
151
108
158
211
230
242
95
4
92
222
211
31
61
49
8
31
42
18
56
70
61
82
95
56
61
31
42
66
61
70
95
92
99
113
131
66
1
31
49
49
42
18
31
49
56
18
82
151
104
108
113
119
151
113
125
108
125
119
171
177
131
177
131
158
49
61
207
230
242
244
119
31
42
191
230
207
228
247
211
8
42
42
42
66
86
99
92
42
66
56
78
78
78
66
61
74
86
131
119
49
1
18
49
18
8
31
18
18
8
31
158
143
171
151
119
104
108
104
165
131
137
137
158
131
143
137
171
131
2
92
204
231
199
247
113
8
125
242
218
199
137
232
242
171
49
74
70
56
70
119
213
56
78
74
61
92
99
70
61
61
95
113
119
49
56
137
131
95
56
49
42
18
18
99
158
113
125
165
137
95
119
158
158
182
131
143
165
125
177
143
211
99
49
143
186
207
165
245
108
61
239
235
213
230
82
86
165
243
243
151
82
70
42
86
191
61
74
70
61
92
95
66
74
70
92
92
104
42
108
227
234
218
108
49
31
42
70
131
143
131
104
108
99
143
119
131
143
165
137
131
143
108
143
137
182
56
131
199
204
207
143
245
143
104
236
182
182
226
158
78
108
131
177
191
78
74
82
70
151
78
56
70
70
113
99
86
82
74
74
70
70
18
137
248
237
207
125
61
104
151
204
131
131
131
108
104
158
165
158
113
119
151
165
125
158
158
151
125
240
249
249
211
171
242
228
250
131
104
182
92
165
204
222
108
92
82
56
18
70
56
86
86
70
70
70
95
66
56
66
78
70
82
82
92
95
31
125
246
199
171
195
177
234
255
242
143
137
125
108
131
151
151
92
95
131
143
131
131
165
143
125
199
241
242
239
207
222
216
230
247
104
125
204
95
86
195
226
191
49
74
99
74
70
92
221
125
56
74
92
158
125
74
158
125
56
95
226
237
218
95
204
255
253
254
255
255
255
255
216
108
151
108
104
125
125
143
104
125
165
165
158
186
165
113
113
207
226
218
222
177
238
237
246
228
177
191
119
113
113
195
204
249
246
250
251
218
125
226
246
232
158
182
204
226
221
218
165
137
177
231
252
253
252
204
151
248
249
244
245
245
243
249
191
99
99
151
137
99
131
165
137
137
165
131
137
165
125
151
137
211
240
241
238
143
237
252
247
182
171
234
253
250
250
236
216
230
252
255
255
250
246
230
241
248
247
239
224
186
221
232
238
247
241
249
254
254
255
204
70
171
177
158
165
177
165
199
99
137
165
131
143
158
151
137
158
125
108
113
113
137
158
151
207
213
195
221
226
165
239
251
254
252
236
195
240
253
255
252
235
182
250
255
251
247
253
245
246
248
247
247
250
226
213
254
255
251
250
249
232
243
242
143
92
125
119
191
177
108
131
204
119
125
131
131
158
131
125
137
151
143
119
158
165
151
158
104
222
244
249
253
227
213
242
251
253
211
236
252
228
242
236
231
235
207
242
241
226
238
249
244
230
235
241
245
238
231
231
238
247
231
239
244
226
239
247
151
78
151
137
171
199
143
177
199
151
125
95
143
131
131
171
151
171
119
113
125
165
151
125
151
228
143
92
151
158
231
221
199
235
199
165
204
199
158
158
165
151
191
218
222
165
177
143
137
143
137
137
113
131
131
131
125
151
131
131
165
171
177
182
74
70
151
151
158
151
158
204
171
158
99
137
119
119
113
113
137
113
165
158
113
131
137
131
143
211
113
95
151
195
245
222
113
216
195
119
151
151
171
143
143
151
171
191
228
182
158
165
137
151
151
158
131
137
158
177
182
171
177
177
171
186
195
191
78
66
158
143
137
143
177
195
171
171
131
182
99
113
131
95
92
171
165
104
137
108
119
104
207
191
151
113
177
216
249
231
151
227
204
131
177
177
171
211
211
182
199
207
228
231
207
216
204
226
237
234
239
236
230
238
242
244
239
236
216
213
228
231
125
70
171
171
171
171
204
199
177
143
104
95
86
113
113
113
104
99
119
108
143
191
171
171
228
182
165
158
207
211
241
211
158
213
131
143
158
182
191
177
182
182
211
226
224
242
222
216
216
234
239
228
232
234
234
236
230
239
235
232
216
227
231
238
119
78
195
177
165
177
177
213
195
95
143
104
95
151
131
108
143
108
125
131
182
171
151
199
226
165
165
191
204
199
228
171
151
211
137
177
191
182
177
186
204
213
171
195
221
213
211
182
186
177
182
182
199
182
182
191
191
191
218
207
204
211
211
222
95
70
158
137
131
151
158
158
199
171
113
119
99
104
131
137
158
137
125
158
151
131
151
211
199
137
113
204
211
226
232
158
158
191
158
158
177
151
151
171
137
151
177
137
186
171
218
171
165
158
177
177
186
165
177
182
165
177
195
186
204
222
216
211
82
78
151
131
151
143
151
151
143
213
191
125
108
119
119
158
143
171
137
143
99
143
165
207
158
143
151
218
204
241
191
186
186
143
143
143
151
151
151
177
151
151
177
195
191
221
227
143
125
177
165
165
165
182
191
195
195
211
207
216
207
222
224
213
86
74
165
158
151
158
165
151
137
213
232
222
137
158
104
143
158
165
119
92
119
182
137
211
143
143
143
224
234
216
151
151
151
125
137
137
131
158
165
171
177
143
151
171
191
211
243
199
158
177
171
165
182
195
204
204
213
218
218
211
207
216
221
211
99
74
177
158
158
158
165
143
131
216
207
242
207
108
151
113
104
108
151
131
99
131
171
204
165
143
137
211
221
239
151
137
158
158
171
171
151
186
191
165
182
158
158
177
171
207
222
228
207
186
191
213
211
207
204
204
211
207
213
195
204
213
199
204
95
82
186
204
182
165
165
158
143
221
195
231
250
191
151
108
92
82
125
137
113
104
224
227
191
195
226
195
230
252
231
207
222
224
222
221
191
151
151
165
165
151
191
204
182
195
204
231
232
186
182
204
218
221
182
204
211
204
211
195
224
227
235
244
171
82
186
204
199
158
165
143
165
224
216
195
252
249
224
143
104
108
113
82
108
131
235
221
207
221
237
151
242
247
232
221
211
227
235
199
158
171
165
177
131
151
171
171
158
131
191
211
231
177
171
171
199
199
186
195
186
199
191
182
186
191
199
221
92
92
191
177
186
195
171
171
171
227
216
171
250
254
251
241
131
108
158
137
199
234
242
191
218
207
230
177
249
232
199
204
186
221
226
211
191
195
171
151
137
143
151
125
158
151
171
216
222
218
171
171
199
182
186
171
191
199
221
222
216
218
207
224
95
86
171
165
165
165
182
165
137
230
224
151
245
252
253
253
199
125
151
204
251
254
234
151
165
204
247
224
242
211
211
186
158
182
151
143
171
171
171
143
143
177
177
165
171
177
182
227
231
211
151
182
191
207
216
182
165
199
195
186
224
230
221
226
82
92
199
207
191
199
213
226
211
235
236
191
242
254
249
239
234
137
191
199
250
254
204
137
143
213
252
253
234
177
171
171
177
186
151
165
177
204
211
191
191
204
182
182
186
158
177
204
231
137
158
204
213
195
199
226
216
186
221
216
216
199
207
204
86
92
211
218
211
199
171
199
199
231
241
234
228
253
250
224
242
236
224
238
245
249
165
165
177
195
248
255
240
137
171
177
171
158
177
204
182
191
195
182
204
191
182
199
191
182
177
186
236
222
137
218
216
222
218
239
243
227
235
236
230
224
211
182
82
61
165
151
177
186
171
171
186
235
239
245
218
247
243
216
245
245
218
224
224
238
182
191
165
226
247
254
171
158
171
165
182
191
204
191
204
199
182
186
186
177
177
199
211
211
199
224
226
249
151
207
207
222
231
221
227
224
235
234
241
247
207
199
82
74
195
165
195
186
186
186
199
234
221
247
243
243
238
182
248
250
240
218
171
234
207
195
182
239
245
250
213
218
211
199
186
165
165
182
211
177
158
158
171
177
171
158
191
191
186
199
186
240
227
191
213
218
232
195
204
235
237
227
224
216
213
222
86
95
221
165
182
199
195
204
204
241
232
234
250
249
227
165
247
255
254
252
239
232
230
207
186
245
250
249
216
204
199
211
182
158
186
199
216
195
165
165
204
186
177
171
165
182
191
207
199
218
244
191
186
177
177
186
177
235
230
230
227
227
221
221
82
99
211
216
207
207
211
224
207
239
244
221
250
253
228
218
242
247
254
253
239
235
221
195
204
247
254
237
158
204
195
186
182
195
213
199
226
232
195
186
218
211
195
165
165
171
182
195
191
191
243
207
191
204
195
213
211
195
221
218
228
213
221
224
104
31
78
104
86
82
86
78
86
143
165
78
137
186
151
99
113
95
191
204
125
125
104
92
108
165
151
99
78
99
82
86
99
82
92
92
95
86
70
70
66
99
92
74
74
70
82
78
92
78
108
113
70
125
125
137
119
104
99
86
99
92
113
131
42
