000000010001
000000010000
000000010011
000000001111
000000010101
000000001010
000000001111
000000010010
000000010001
000000001111
000000011010
000000001010
000000011000
000000010010
000000000000
000000010001
000000010111
000000100011
000000000000
000000011001
000000000000
000000011111
000000000000
000000100000
000000000000
000000100011
000000000000
000000011111
000000000000
000000101000
000000000000
000000100100
000000000000
000000000000
000000101111
000000000000
000000000000
000000101101
000000000000
000000110100
000000000000
000000000000
000000000000
000000110000
000000000000
000000000000
000001000110
000000000000
000000000000
000000000000
000001001001
000000000000
000000000000
000000000000
000000000000
000001100011
000000000000
000000000000
000000000000
000000000000
000000000000
000001000011
000000000000
000000000000
000000000000
000001100110
000000000000
000000000000
000000000000
000000000000
000000000000
000001100001
000000000000
000000000000
000000000000
000000000000
000000000000
000001111100
000000000000
000000000000
000000000000
000000000000
000000000000
000000000000
000000000000
000001011100
000000000000
000000000000
000000000000
000000000000
000000000000
000001110110
000000000000
000000000000
000000000000
000000000000
000000000000
000000000000
000001011101
000000000000
000000000000
000000000000
000000000000
000000000000
000001100110
000000000000
000000000000
000000000000
000000000000
000000000000
000001011110
000000000000
000000000000
000000000000
000000000000
000000000000
000001110011
000000000000
000000000000
000000000000
000000000000
000000000000
000000000000
000001100010
000000000000
000000000000
000000000000
000000000000
000000000000
000000000000
000001101011
000000000000
000000000000
000000000000
000000000000
000000000000
000001111100
000000000000
000000000000
000000000000
000000000000
000000000000
000000000000
000000000000
000001011011
000000000000
000000000000
000000000000
000000000000
000000000000
000000111100
000000000000
000000000000
000000111000
000000000000
000000000000
000000000000
000000111000
000000000000
000000000000
000000111100
000000000000
000000000000
000000000000
000001000100
000000000000
000000000000
000000000000
000001000111
000000000000
000000000000
000000000000
000000000000
000001000111
000000000000
000000000000
000000000000
000001000001
000000000000
000000000000
000000000000
000000111111
000000000000
000000000000
000000000000
000001000001
000000000000
000000000000
000000000000
000001001010
000000000000
000000000000
000000000000
000000000000
000001001001
000000000000
000000000000
000000000000
000000000000
000001010001
000000000000
000000000000
000000000000
000000000000
000001010101
000000000000
000000000000
000000000000
000000000000
000001110101
000000000000
000000000000
000000000000
000000000000
000000000000
000000000000
000010111111
000000000000
000000000000
000000000000
000000000000
000000000000
000000000000
000000000000
000000000000
000000000000
000000000000
000000000000
000100100000
000000000000
000000000000
000000000000
000000000000
000000000000
000000000000
000000000000
000000000000
000000000000
000000000000
000000000000
000000000000
000000000000
000000000000
000000000000
000000000000
000000000000
000001010010
000000000000
000000000000
000000000000
000000000000
000000001101
000000011000
000000000000
000000011001
000000000100
