000000010011
000000010011
000000001111
000000001111
000000001101
000000010101
000000010100
000000001010
000000011000
000000001001
000000010001
000000001100
000000010000
000000011001
000000001111
000000001010
000000010111
000000010000
000000001100
000000010011
000000010011
000000010111
000000000000
000000010011
000000010111
000000010101
000000000000
000000010011
000000010100
000000011110
000000000000
000000011010
000000000000
000000011100
000000100111
000000000000
000000000000
000000101010
000000000000
000000101000
000000000000
000000000000
000000100000
000000000000
000000111111
000000000000
000000000000
000000000000
000000111010
000000000000
000000000000
000001001010
000000000000
000000000000
000000000000
000000000000
000001000010
000000000000
000000000000
000000000000
000000111101
000000000000
000000000000
000000000000
000001001111
000000000000
000000000000
000000000000
000000000000
000000111110
000000000000
000000000000
000000000000
000001010101
000000000000
000000000000
000000000000
000000000000
000001011100
000000000000
000000000000
000000000000
000000000000
000000000000
000001100011
000000000000
000000000000
000000000000
000000000000
000000000000
000001101011
000000000000
000000000000
000000000000
000000000000
000000000000
000000000000
000001110000
000000000000
000000000000
000000000000
000000000000
000000000000
000000000000
000010000010
000000000000
000000000000
000000000000
000000000000
000000000000
000000000000
000000000000
000001011101
000000000000
000000000000
000000000000
000000000000
000000000000
000001100011
000000000000
000000000000
000000000000
000000000000
000000000000
000001101001
000000000000
000000000000
000000000000
000000000000
000000000000
000001011000
000000000000
000000000000
000000000000
000000000000
000000000000
000001011100
000000000000
000000000000
000000000000
000000000000
000000000000
000001001111
000000000000
000000000000
000000000000
000000000000
000001000110
000000000000
000000000000
000000000000
000001001000
000000000000
000000000000
000000000000
000000000000
000001000011
000000000000
000000000000
000000000000
000000111011
000000000000
000000000000
000001010110
000000000000
000000000000
000000000000
000000000000
000000000000
000000111100
000000000000
000000000000
000000000000
000001000101
000000000000
000000000000
000000000000
000001000001
000000000000
000000000000
000000000000
000001000000
000000000000
000000000000
000000000000
000001000110
000000000000
000000000000
000000000000
000001000101
000000000000
000000000000
000000000000
000000000000
000001010000
000000000000
000000000000
000000000000
000000000000
000001110100
000000000000
000000000000
000000000000
000000000000
000000000000
000000000000
000001111001
000000000000
000000000000
000000000000
000000000000
000000000000
000000000000
000010101011
000000000000
000000000000
000000000000
000000000000
000000000000
000000000000
000000000000
000000000000
000000000000
000000000000
000011010011
000000000000
000000000000
000000000000
000000000000
000000000000
000000000000
000000000000
000000000000
000000000000
000000000000
000000000000
000000000000
000010010101
000000000000
000000000000
000000000000
000000000000
000000000000
000000000000
000000000000
000000000000
000000000000
000001000110
000000000000
000000000000
000000000000
000000011111
000000000000
000000010111
000000001111
000000000011
