000000000000
000000000000
000000000000
000000000000
000000000000
000000000000
000000000000
000000000000
000000000000
000000000000
000000000000
000000000000
000000000000
000000000000
000000000000
000000000000
000000000000
000000000000
000000000000
000000000000
000000000000
000000000000
000000000000
000000000000
000000000000
000000000000
000000000000
000000000000
000000000000
000000000000
000000000000
000000000000
000000000000
000000000000
000000000000
000000000000
000000000000
000000000000
000000000000
000000000000
000000000000
000000000000
000000000000
000000000000
000000000000
000000000000
000000000000
000000000000
000000000000
000000000000
000000000000
000000000000
000000000000
000000000000
000000000000
000000000000
000000000000
000000000000
000000000000
000000000000
000000000000
000000000000
000000000000
000000000000
000000000000
000000000000
000000000000
000000000000
000000000000
000000000000
000000000000
000000000000
000000000000
000000000000
000000000000
000000000000
000000000000
000000000000
000000000000
000000000000
000000000000
000000000000
000000000000
000000000000
000000000000
000000000000
000000000000
000000000000
000000000000
000000000000
000000000000
000000000000
000000000000
000000000000
000000000000
000000000000
000000000000
000000000000
000000000000
000000000000
000000000000
000000000000
000000000000
000000000000
000000000000
000000000000
000000000000
000000000000
000000000000
000000000000
000000000000
000000000000
000000000000
000000000000
000000000000
000000000000
000000000000
000000000000
000000000000
000000000000
000000000000
000000000000
000000000000
000000000000
000000000000
000000000000
000000000000
000000000000
000000000000
000000000000
000000000000
000000000000
000000000000
000000000000
000000000000
000000000000
000000000000
000000000000
000000000000
000000000000
000000000000
000000000000
000000000000
000000000000
000000000000
000000000000
000000000000
000000000000
000000000000
000000000000
000000000000
000000000000
000000000000
000000000000
000000000000
000000000000
000000000000
000000000000
000000000000
000000000000
000000000000
000000000001
000000000001
000000000000
000000000000
000000000000
000000000001
000000000000
000000000000
000000000000
000000000000
000000000001
000000000001
000000000000
000000000001
000000000001
000000000001
000000001001
000000000110
000000000011
000000000111
000000001000
000000000011
000000001000
000000000111
000000001000
000000001011
000000001010
000000001010
000000000110
000000001001
000000010010
000000001001
000000001000
000000001111
000000001101
000000001101
000000001010
000000011000
000000010010
000000010001
000000010111
000000100011
000000011001
000000011111
000000100000
000000100011
000000011111
000000101000
000000100100
000000101111
000000101101
000000110100
000000110000
000001000110
000001001001
000001100011
000001000011
000001100110
000001100001
000001111100
000001011100
000001110110
000001011101
000001100110
000001011110
000001110011
000001100010
000001101011
000001111100
000001011011
000000111100
000000111000
000000111000
000000111100
000001000100
000001000111
000001000111
000001000001
000000111111
000001000001
000001001010
000001001001
000001010001
000001010101
000001110101
000010111111
000100100000
000001010010
000000001101
000000011000
000000011001
000000000100
000000000000
000000000000
000000000000
