000000000000
000000000000
000000000001
000000000000
000000000011
000000000111
000000001001
000000001011
000000001010
000000000100
000000001001
000000001000
000000000101
000000000011
000000000111
000000001000
000000001001
000000001011
000000000111
000000000110
000000001000
000000010001
000000000011
000000001001
000000000111
000000001011
000000001100
000000010001
000000000111
000000001110
000000001110
000000011000
000000010101
000000001101
000000001011
000000010101
000000001111
000000010111
000000010110
000000001100
000000010100
000000011110
000000010010
000000010000
000000011001
000000010100
000000010011
000000010000
000000010010
000000010001
000000011000
000000010011
000000010110
000000010101
000000001111
000000001101
000000010100
000000010010
000000011001
000000011010
000000010101
000000010101
000000010011
000000010110
000000010111
000000010100
000000001110
000000011101
000000010001
000000011001
000000010001
000000011000
000000100001
000000011011
000000011001
000000010100
000000011001
000000011111
000000010101
000000011000
000000011000
000000011111
000000010000
000000001111
000000010101
000000011011
000000010110
000000010101
000000011111
000000011011
000000010101
000000010101
000000010111
000000001111
000000010010
000000001100
000000011010
000000010100
000000010011
000000010000
000000001111
000000011001
000000010010
000000001110
000000010001
000000010101
000000001011
000000010011
000000010100
000000010100
000000011010
000000001111
000000010000
000000011011
000000010010
000000001111
000000010010
000000001111
000000001110
000000010011
000000011001
000000010111
000000010100
000000010011
000000010111
000000010001
000000011001
000000010011
000000010101
000000010011
000000010011
000000010100
000000010111
000000010000
000000010011
000000010011
000000001011
000000001101
000000010010
000000001011
000000001100
000000010010
000000001000
000000001011
000000000110
000000001010
000000001111
000000001100
000000001010
000000001100
000000010000
000000001101
000000000011
000000001110
000000000111
000000010011
000000010001
000000001010
000000010110
000000001111
000000010000
000000001111
000000001111
000000010010
000000010011
000000010001
000000001110
000000001100
000000001110
000000010000
000000001001
000000010100
000000001100
000000010110
000000001011
000000001010
000000001111
000000001011
000000001101
000000001101
000000010000
000000001101
000000001110
000000001111
000000001010
000000001111
000000010100
000000010001
000000001000
000000010100
000000010011
000000010001
000000000111
000000001001
000000001101
000000010001
000000001110
000000001100
000000010001
000000001110
000000000110
000000001100
000000010010
000000010000
000000001011
000000010000
000000001110
000000010101
000000010101
000000010000
000000010001
000000010110
000000010001
000000011001
000000010111
000000010101
000000011000
000000010110
000000011000
000000011000
000000011011
000000100000
000000011110
000000100101
000000100100
000000011111
000000010110
000000100011
000000011001
000000011100
000000010100
000000010011
000000010001
000000001100
000000001111
000000001100
000000001010
000000000100
000000000100
000000000101
000000000100
000000000110
000000000110
000000000110
000000001000
000000000111
000000000010
000000000100
000000000010
000000000001
000000000001
000000000001
000000000000
000000000000
000000000000
000000000000
