11
21
23
20
16
16
15
11
7
7
10
12
12
11
16
22
25
32
41
52
61
65
68
63
54
65
87
91
83
84
94
94
86
86
83
72
70
73
61
45
36
28
21
18
14
9
6
4
5
8
10
11
8
9
14
17
16
15
24
38
40
38
37
19
23
47
57
49
38
36
34
25
19
21
26
27
29
31
33
41
57
78
84
85
95
106
115
114
104
127
167
171
156
165
183
181
171
167
151
132
134
137
120
94
81
74
65
57
47
32
18
11
13
23
31
29
23
29
40
43
41
41
52
69
76
79
74
40
19
48
65
59
42
37
36
29
29
34
34
30
36
43
37
36
57
83
89
87
95
104
112
117
125
155
192
186
167
188
212
211
205
195
174
154
153
154
140
117
100
97
95
82
68
50
27
17
20
34
46
40
31
39
48
48
48
53
65
75
83
90
80
42
14
39
56
53
39
37
38
32
34
37
32
26
34
46
42
39
53
68
76
82
91
102
105
114
139
162
180
176
165
187
208
207
195
186
174
155
152
150
132
110
93
89
88
77
65
50
33
25
25
32
39
34
28
32
37
40
44
52
64
70
72
79
69
36
24
47
53
48
43
44
43
35
30
24
20
20
28
41
56
66
70
77
86
84
87
104
112
125
151
170
183
188
188
196
205
197
181
180
174
159
159
147
121
98
81
71
65
64
60
45
34
31
28
25
23
27
30
30
33
40
45
51
62
67
68
71
60
30
39
57
52
48
47
43
39
33
25
15
13
19
23
30
50
65
68
82
95
87
84
99
115
132
154
181
204
210
199
191
196
189
181
190
185
182
183
159
126
97
72
59
54
58
57
42
31
27
27
21
21
31
38
39
42
46
50
57
65
68
66
66
55
26
42
59
49
44
44
38
36
35
32
24
21
28
32
31
32
33
43
62
73
73
79
95
115
136
156
178
202
211
188
174
183
180
186
203
203
202
195
172
143
110
84
73
65
57
49
43
37
33
28
21
24
33
40
46
49
48
51
60
67
69
65
64
58
31
32
55
48
35
32
31
33
36
35
33
34
39
48
50
35
26
40
59
61
60
73
91
108
126
148
167
188
203
186
167
168
166
171
185
191
184
166
158
152
130
109
95
78
57
45
49
50
43
30
18
20
30
41
51
51
42
41
52
64
70
68
67
64
38
23
50
49
36
28
24
26
28
27
30
41
54
66
68
54
50
66
78
75
81
101
111
110
124
154
179
198
213
203
180
173
175
169
159
164
163
143
136
136
123
100
81
72
58
47
48
46
39
32
20
18
31
45
53
50
38
34
47
63
73
74
72
65
39
19
42
44
38
33
27
22
21
22
26
46
72
82
76
69
75
88
93
91
110
144
148
131
135
166
192
200
198
188
175
172
181
181
170
167
166
150
127
109
96
78
64
60
55
49
45
36
33
33
25
22
30
37
42
44
40
39
51
69
81
82
81
70
40
13
31
34
31
32
31
26
27
31
29
46
84
99
88
79
85
97
102
97
109
140
152
140
136
161
185
176
154
144
143
142
150
171
184
174
163
156
132
101
89
83
75
66
59
54
46
39
34
30
28
27
24
25
31
41
47
48
60
77
88
90
93
84
47
11
30
35
28
30
32
27
37
49
39
40
75
100
91
84
87
96
99
92
99
119
131
134
144
163
166
147
130
127
128
117
117
154
182
165
151
157
141
107
94
95
88
75
65
57
51
46
37
32
32
27
22
24
30
45
58
60
68
83
92
92
95
87
49
11
34
42
35
36
30
22
36
56
51
43
61
80
82
84
87
86
86
86
98
118
123
133
166
172
144
127
123
124
130
126
121
145
176
167
148
147
130
96
83
89
84
66
51
46
49
47
38
35
32
22
21
26
32
46
59
64
70
85
95
93
90
80
45
11
30
40
42
40
28
25
41
59
61
56
61
74
84
89
88
84
85
85
91
110
119
137
174
168
136
140
142
129
131
153
166
172
194
200
177
150
118
86
73
78
79
61
44
38
39
42
39
34
28
23
28
35
38
44
53
62
67
79
93
95
92
82
48
14
29
34
39
39
28
29
44
57
64
64
66
78
90
97
97
93
93
91
94
106
120
148
174
157
141
174
193
166
139
154
197
221
232
238
223
188
151
120
94
82
79
66
53
42
31
31
31
29
29
30
34
40
45
47
58
69
71
75
88
94
96
89
54
17
32
32
31
33
30
33
42
48
58
66
69
77
92
110
116
110
113
124
134
142
147
164
173
158
161
200
224
198
137
118
178
234
250
247
232
217
203
177
139
101
79
64
50
38
28
23
22
22
28
31
31
36
48
58
69
80
87
91
96
99
99
92
56
12
27
27
24
27
32
44
51
48
54
65
70
75
98
134
148
145
157
176
182
180
175
170
167
179
203
221
229
204
130
92
149
223
250
243
225
224
229
217
177
116
76
61
44
35
31
29
25
21
21
26
33
40
53
65
71
82
99
108
109
108
104
94
57
8
20
22
23
26
31
44
52
52
54
62
72
81
104
147
175
176
178
188
185
172
169
158
158
193
224
234
234
214
165
135
168
222
248
247
238
235
224
210
185
133
94
74
56
45
38
35
31
21
19
26
38
46
52
60
69
80
94
102
107
109
109
98
58
10
23
26
26
28
32
37
44
50
53
60
76
97
119
154
180
173
158
164
166
156
158
152
152
182
205
219
225
215
207
194
189
218
244
248
249
245
219
194
191
181
150
103
67
52
40
32
28
24
25
28
34
43
49
54
65
79
86
92
100
105
112
103
59
13
33
37
30
28
32
35
41
48
52
61
83
117
151
171
170
153
139
146
151
145
156
163
161
177
196
207
205
183
188
191
171
199
239
248
250
249
235
209
188
180
153
96
58
47
35
26
25
30
32
28
29
41
53
58
62
74
86
94
100
105
115
107
62
12
34
41
35
28
26
26
32
42
49
63
97
138
165
163
145
133
133
142
139
128
145
172
174
179
207
218
188
141
146
168
151
172
227
249
251
249
240
205
142
100
74
49
41
36
30
28
25
28
28
26
34
44
59
70
69
76
90
99
105
107
115
107
62
10
27
37
36
26
19
20
26
36
50
82
132
163
158
137
123
123
132
135
126
117
134
168
172
172
205
213
175
142
157
179
156
160
217
248
248
244
231
188
109
47
21
19
27
26
24
27
24
23
20
20
31
44
63
77
78
84
93
97
99
104
114
102
57
10
26
34
35
28
21
25
32
45
77
130
173
182
162
138
126
129
137
133
121
116
135
158
153
155
184
188
174
181
197
201
179
176
218
248
249
244
235
191
105
41
19
17
23
25
22
21
25
28
24
23
29
44
61
69
74
83
87
88
91
99
116
106
57
15
33
36
34
31
27
28
33
61
122
170
175
167
161
150
140
137
141
141
129
122
134
142
128
130
154
167
181
199
193
183
173
169
211
249
248
234
220
172
84
33
24
26
30
31
26
23
28
29
30
38
43
47
49
50
62
75
82
90
96
105
123
117
65
19
38
40
33
31
31
28
34
84
149
164
140
129
133
135
138
137
135
133
127
124
123
124
123
123
142
174
193
184
158
145
145
159
208
247
239
209
177
121
53
27
31
36
35
30
29
32
33
24
25
42
52
48
41
42
56
71
85
99
106
117
131
120
69
16
35
40
37
36
37
31
52
114
148
140
132
130
125
128
132
129
129
125
120
124
121
123
131
138
163
196
189
157
133
118
127
166
207
215
201
184
147
81
34
29
37
41
36
30
32
41
42
32
31
44
53
50
47
56
66
72
85
100
108
121
136
123
69
14
32
39
42
43
37
31
70
129
135
127
147
152
138
138
138
128
133
132
119
125
136
139
141
158
185
183
157
138
119
108
129
174
197
178
156
159
142
81
35
24
29
38
39
37
38
43
47
53
62
65
60
54
57
67
74
73
77
93
109
122
134
123
70
13
33
45
48
40
29
32
68
114
124
121
137
142
127
125
128
132
148
145
122
120
139
157
166
174
170
143
126
129
123
121
152
198
215
195
163
152
143
96
45
22
20
27
31
34
43
48
53
73
89
82
66
59
63
66
68
68
71
86
107
120
126
113
65
12
36
51
47
35
29
34
50
79
107
120
127
127
117
109
108
132
164
159
135
131
151
177
180
157
135
121
118
126
131
133
161
202
220
220
198
164
131
83
47
33
25
24
24
24
35
45
60
86
100
87
70
60
56
55
60
68
76
87
102
115
121
105
59
13
35
42
33
30
35
36
33
44
75
110
133
136
125
107
99
126
163
164
154
170
199
210
186
142
119
122
127
130
131
135
161
188
195
204
204
178
117
55
38
41
36
31
27
23
27
37
63
106
129
112
80
58
48
52
64
75
84
91
97
105
114
102
56
14
32
32
23
27
37
35
26
28
45
87
136
144
122
102
94
113
141
147
154
194
232
238
208
155
122
130
145
140
128
128
161
196
199
189
187
181
127
52
31
42
42
34
29
33
41
46
68
126
170
142
81
56
53
59
70
77
83
90
97
100
105
98
56
12
30
35
32
35
38
33
25
27
34
73
134
143
114
97
96
106
120
127
141
181
220
235
216
167
136
149
164
152
129
119
151
205
219
190
159
164
148
75
33
41
42
33
32
41
53
56
73
125
167
136
70
46
53
64
70
71
77
90
100
99
98
95
58
10
26
37
43
42
34
30
30
30
32
73
131
135
109
100
107
115
122
128
132
148
184
211
204
181
165
158
161
157
134
129
165
213
218
164
111
134
168
116
51
44
40
28
33
39
44
54
72
102
129
113
64
40
45
59
66
66
76
92
99
96
99
98
60
10
26
37
46
42
28
29
39
37
34
76
126
123
106
106
118
126
123
125
124
124
150
182
187
185
175
151
142
132
125
155
199
227
209
129
66
104
176
166
108
93
89
61
39
35
38
50
67
82
97
91
64
48
47
57
66
68
74
84
90
97
109
105
61
8
26
39
41
34
26
28
37
36
44
90
130
128
117
114
120
124
121
124
124
123
138
161
165
162
160
149
124
89
104
174
218
232
207
121
56
95
180
204
177
170
180
146
80
47
46
53
64
79
100
99
72
60
60
66
75
76
71
71
78
95
114
105
57
20
47
59
47
34
30
28
25
29
63
115
139
142
138
123
114
117
129
141
140
134
141
150
148
147
154
155
114
69
105
181
213
218
202
125
75
130
202
219
196
175
190
194
152
106
83
70
64
75
114
129
90
68
69
72
84
86
73
66
72
91
108
98
52
60
113
127
102
66
45
34
27
43
91
131
134
134
137
126
114
120
137
154
155
143
142
144
141
146
158
156
111
89
135
187
197
199
194
135
111
175
216
214
191
143
131
164
186
174
135
91
68
69
107
132
96
69
69
74
89
91
78
72
75
84
93
82
44
104
183
203
169
109
64
55
67
92
120
134
127
117
119
126
131
132
134
145
154
146
140
140
139
142
157
165
143
146
177
197
198
200
198
151
135
178
189
191
196
155
112
118
144
153
129
90
72
73
92
108
87
69
71
76
86
88
81
77
77
79
82
69
35
124
210
224
192
141
108
118
149
161
146
134
125
114
118
138
146
133
121
130
146
145
140
145
146
143
165
199
210
210
206
204
213
222
208
153
137
157
145
155
193
186
134
96
92
90
80
72
82
100
97
85
76
80
91
86
82
90
88
79
88
110
120
101
52
136
217
223
204
188
184
203
223
203
157
133
123
115
125
142
141
121
116
133
146
147
149
152
143
145
183
224
237
228
213
214
226
234
212
159
145
147
122
130
182
205
175
131
119
117
101
95
128
161
141
103
100
122
142
133
121
124
115
105
134
181
200
176
102
148
228
240
234
235
238
245
243
200
145
127
123
117
122
134
136
122
127
146
151
153
159
152
134
145
192
226
231
217
204
220
237
235
211
180
175
169
150
157
191
215
218
208
207
206
184
167
192
220
203
172
169
183
194
195
187
178
167
172
203
236
247
229
149
130
209
230
227
228
229
230
219
174
131
126
132
129
126
135
143
138
137
142
139
143
152
148
144
162
199
223
229
212
196
220
246
239
215
201
208
216
217
220
224
222
228
244
253
250
238
227
232
241
239
230
226
221
214
220
228
226
223
230
241
248
250
235
157
93
158
182
186
185
179
185
182
148
129
135
139
141
139
140
145
145
135
128
129
135
144
147
155
187
213
223
229
216
203
225
248
245
230
221
225
237
247
248
241
226
220
237
249
247
247
247
243
242
244
245
244
236
224
225
239
247
246
246
244
241
243
225
142
77
127
149
168
168
150
159
169
143
127
131
137
142
142
141
145
147
134
125
136
148
149
144
156
195
210
206
211
211
214
229
240
238
226
220
223
224
223
222
219
211
211
228
234
225
223
222
218
214
214
215
214
211
206
205
214
219
215
217
220
219
223
203
122
76
126
147
166
168
157
169
176
150
124
120
129
133
133
140
146
146
138
130
136
148
147
139
158
186
169
150
167
194
218
218
211
215
202
187
193
193
183
176
174
178
192
213
215
196
184
175
167
166
166
163
157
158
163
166
171
174
171
173
183
190
196
173
97
74
131
150
155
159
169
182
178
153
131
127
125
121
122
124
131
142
146
136
128
131
132
136
164
178
142
121
151
196
225
209
184
197
188
159
161
169
167
165
163
167
182
203
211
195
178
168
162
165
169
167
160
161
170
178
183
183
182
181
183
189
196
171
94
74
135
154
151
158
177
187
176
153
136
129
116
113
116
109
114
134
141
131
130
135
134
147
178
182
151
141
171
211
231
209
183
192
180
153
159
171
177
183
183
183
193
209
221
217
205
199
198
206
214
213
211
211
215
220
224
224
222
217
210
211
218
194
112
79
146
166
163
171
187
193
175
144
125
113
106
115
118
112
112
120
124
127
145
159
158
174
196
186
165
168
190
214
224
202
183
184
167
155
168
179
183
188
192
193
200
212
224
226
218
209
209
216
221
221
223
222
222
223
225
228
230
225
218
219
226
201
115
82
150
167
163
169
181
191
176
142
121
108
106
120
125
124
126
122
123
138
157
163
168
191
199
174
163
183
202
214
213
186
173
177
163
162
174
175
176
179
183
186
186
193
206
212
207
195
188
189
192
196
198
195
195
197
197
202
210
210
210
215
219
190
105
78
138
150
148
154
162
171
175
162
140
118
109
117
128
137
144
139
135
142
146
147
165
191
186
156
155
188
211
219
208
180
170
170
160
160
166
162
163
167
164
166
171
176
188
201
199
178
164
168
173
177
179
178
181
184
184
190
199
202
207
215
217
183
97
77
132
145
145
150
154
154
167
186
178
148
125
120
128
142
153
151
139
129
129
143
167
184
170
147
159
196
218
217
196
176
165
154
147
147
151
153
159
164
158
156
166
177
190
208
207
175
156
164
170
170
175
182
189
193
196
202
206
207
210
217
219
183
97
79
139
155
153
156
157
149
159
195
212
192
158
135
129
135
143
144
132
117
123
145
168
180
164
145
162
201
223
210
177
159
154
146
145
146
148
159
168
170
166
157
161
176
191
211
218
195
174
174
176
178
185
194
200
203
208
212
212
209
209
214
215
183
100
82
150
169
163
162
160
150
159
195
218
220
194
156
135
123
116
121
128
122
119
139
175
191
175
160
172
202
225
218
184
165
167
170
173
170
164
168
171
171
168
162
166
177
186
203
218
217
202
188
188
197
204
205
202
205
209
211
209
205
209
214
215
190
111
86
160
187
179
167
161
153
166
197
213
223
222
195
160
126
102
104
118
120
114
139
191
210
196
193
197
203
224
234
216
200
202
208
209
198
178
167
165
165
161
161
174
182
179
186
204
220
215
194
186
197
208
206
198
199
204
205
202
200
206
214
219
201
123
89
164
193
187
174
164
159
175
205
211
214
234
234
205
159
119
110
116
120
131
167
208
217
209
215
211
203
224
238
226
214
213
222
223
205
182
170
166
160
150
153
165
168
162
164
187
213
216
195
179
184
197
197
190
190
195
199
201
199
202
207
214
194
113
90
160
183
182
178
171
165
178
208
209
203
231
250
240
206
154
128
136
154
183
214
220
204
201
214
216
212
226
229
214
201
197
205
206
192
182
178
169
154
146
152
156
154
155
161
182
210
219
201
178
178
190
194
190
184
186
197
204
206
210
212
214
187
101
90
158
179
178
181
184
179
185
213
212
201
228
251
251
234
188
150
159
193
228
241
216
179
178
208
229
231
228
214
198
185
180
181
174
170
176
182
176
162
160
169
170
165
167
170
185
211
218
194
174
181
195
200
199
192
189
196
204
208
215
218
217
185
98
94
170
196
192
191
196
198
204
222
223
214
231
249
248
239
213
184
187
215
240
239
201
163
167
205
238
245
224
192
178
176
174
171
166
168
179
190
191
183
184
188
184
182
179
175
183
205
212
184
170
191
206
206
210
214
209
207
212
217
217
215
210
176
93
91
169
198
197
193
189
194
207
226
234
230
234
245
243
235
230
221
217
226
239
229
193
168
176
207
240
245
212
174
167
173
174
175
180
186
190
194
193
191
192
190
187
191
192
186
187
204
218
198
178
196
213
215
220
228
228
224
227
230
228
221
208
169
89
82
153
179
185
186
180
183
200
224
237
237
236
241
236
227
236
240
230
223
224
220
198
182
188
216
242
238
205
179
177
179
178
180
186
193
196
191
182
181
183
181
181
189
197
197
197
206
221
216
195
197
212
220
224
223
224
229
233
234
234
228
213
173
92
87
156
176
181
188
186
189
204
224
234
238
241
242
226
214
233
246
239
224
216
219
211
195
198
225
245
238
214
200
197
192
183
176
180
192
199
188
171
171
178
179
175
177
186
192
196
201
211
221
214
202
203
210
211
205
209
226
233
231
229
224
217
182
96
98
173
190
190
196
199
202
213
228
234
237
245
244
223
210
232
250
249
240
230
228
220
203
206
232
247
236
214
204
203
197
184
177
185
199
207
197
177
177
189
190
179
171
173
181
190
196
202
217
223
206
194
194
195
194
201
218
228
227
225
222
220
188
100
86
154
175
173
173
177
179
188
207
212
205
217
225
207
192
202
218
232
232
217
205
192
179
187
214
222
198
172
169
170
166
162
163
170
178
185
180
163
159
170
174
163
149
144
150
159
166
169
179
192
182
169
172
178
182
182
184
189
191
191
191
194
169
92
43
82
100
97
94
95
95
104
125
128
116
128
144
131
114
112
124
148
153
133
118
108
100
112
133
133
109
92
92
92
91
92
93
96
99
101
97
88
84
90
97
93
82
78
80
85
89
91
96
106
104
97
105
114
117
112
105
102
102
102
104
111
100
54
