00000100
00001000
00001000
00001000
00000010
00001000
00000010
00000100
00000010
00000001
00000001
00000100
00000100
00000000
00000100
00011111
00000001
00001000
00010010
01000010
00111101
00111000
00111101
00111000
00011111
00111000
01001110
01010010
00111000
00111101
01010010
01010110
01000010
01000110
01010010
00111101
00110001
00111101
00110001
00011111
00011111
00001000
00001000
00000010
00000001
00000000
00000001
00000001
00000001
00000100
00000010
00000100
00000001
00000001
00000000
00000100
00000010
00000010
00000100
00110001
00011111
00010010
00101010
00000001
00011111
01010010
01001110
01000110
00101010
01000010
00110001
00101010
00010010
00010010
00110001
00011111
00110001
00011111
00101010
00111000
01000010
10001001
01101000
01011111
01110111
10010111
10001111
10110001
01100011
10001111
11011010
11011010
11001100
10111010
11110011
11011000
10111010
11001111
11000011
10001001
10110001
10111111
10100101
01001110
01101100
01010110
00111101
01000110
00111000
00011111
00010010
00010010
00001000
00011111
00011111
00110001
00010010
00011111
00111000
01000010
00111101
00110001
00111101
01011100
01100011
01010110
01111101
00110001
00000010
00111000
01000110
01000010
00011111
00010010
00101010
00001000
00011111
00011111
00011111
00010010
00011111
00111000
00011111
00011111
00110001
01011100
01011100
01001010
01001110
01010010
01010110
01110111
01100011
10001111
11011101
10111111
01110001
11001100
11011110
11000111
11100010
11001111
10011110
10000011
10010111
01110111
10001001
10000011
01100011
01101100
01111101
01011100
01001010
01001010
00001000
00010010
00001000
00101010
00111101
00101010
00010010
00111000
00111000
00101010
00101010
00110001
00111101
01000110
01010010
01011111
01011111
00011111
00000100
00011111
00111000
01000010
00011111
00011111
00111000
00001000
00111000
00101010
00111000
00010010
00011111
00111101
00011111
00000010
00101010
01000010
00111101
01011111
01100011
01110111
01110001
01010010
10010111
10101011
10101011
11001100
01110001
10111111
11001100
11010011
11001100
10010111
11100000
10001111
10100101
10111111
10001111
01110001
01001110
01010010
01011111
01001010
00110001
01000110
00010010
00011111
00010010
00011111
00110001
00110001
00010010
00011111
00011111
00101010
00101010
00110001
01010010
01001010
01000010
01010010
01001110
00011111
00001000
01000110
00110001
00110001
00011111
00111000
00110001
00101010
00011111
00010010
00001000
00010010
00011111
00110001
01000010
01011111
01001110
01000110
01001110
01001010
01000010
01110001
01101100
10000011
10110110
10011110
10100101
10110001
10111111
11011010
11011010
11010011
10100101
10110110
10110110
01101000
10100101
01110111
01011111
01011111
01010010
01010010
00111000
01000010
01001110
00010010
00101010
00101010
00011111
00011111
00001000
00001000
00011111
00010010
00011111
00011111
00111000
00011111
00111101
00111101
00111101
01000110
01001010
00011111
00110001
01000110
00101010
00111000
00101010
00110001
00011111
00011111
00010010
00001000
00001000
00010010
00001000
00001000
00111101
01011100
01000110
01011100
10011110
01011100
01000010
01110111
01101000
01110111
01110111
11000011
11100010
11100110
11010011
10110001
10110001
11001111
01111101
11011101
10100101
11000011
11001100
10101011
01111101
01110001
00101010
01000110
00010010
00111101
01000010
00110001
00011111
00001000
00011111
00001000
00010010
00101010
00110001
00101010
00101010
00110001
00110001
00111000
01001010
01000110
01001010
01000110
00111101
00000100
00111000
01010010
00011111
00111000
00111000
00011111
00101010
00011111
00101010
00010010
00001000
00011111
00110001
00010010
00011111
00000100
00011111
00110001
00111000
01000010
01011100
01010010
01110111
10100101
10110110
10110110
11011000
11101101
10101011
10100101
11011010
10111010
11000111
11101110
10110110
11011000
11011101
10101011
10001001
01100011
00111000
00111101
01000010
01001110
00011111
00101010
00010010
00011111
00101010
00010010
00011111
00011111
00101010
00101010
00111000
00110001
00110001
01001010
01000010
01000110
00111000
00110001
01010010
00011111
00010010
01001110
00101010
00010010
00011111
00011111
00011111
00101010
00101010
00101010
00110001
00011111
00101010
00111000
00011111
00001000
00011111
00111000
01000110
00010010
01010110
01000110
10001001
01010110
10010111
10001001
10011110
11001111
10110001
01111101
10110001
10000011
10010111
11011000
11011010
11011000
10010111
10101011
10110110
10001001
10000011
10001001
01001110
00101010
00011111
01000010
01000010
00111101
00010010
00001000
00010010
00011111
00011111
00111000
00110001
00110001
00011111
00111000
00111101
01001010
01001110
00111000
01010010
00011111
00000100
01001110
00101010
00101010
00010010
00010010
00011111
00011111
00010010
00010010
00101010
00101010
01001110
01010110
00111101
00010010
01010110
01010010
01010110
01000010
01010010
01011100
01011111
01101000
10011110
10111111
11001111
11101100
11011000
10111111
10010111
10111111
10011110
01101100
01110111
10011110
01001110
10000011
10001001
10001001
01100011
00111101
01010110
01001110
00011111
00111000
00101010
00011111
00101010
00010010
00000100
00011111
00111000
00111101
01000010
00010010
00010010
00101010
01000010
01001010
01000110
01000110
01001110
00110001
00001000
01000110
00011111
00111000
00011111
00011111
00000100
00010010
00011111
00010010
00110001
01010010
01010110
00111101
01000010
01011100
01100011
01011111
01001010
01101100
11011010
10101011
01111101
10001001
11000011
10111111
11001100
11100000
11010011
10111111
10111111
11010011
11011010
10110110
10110110
11001100
10111111
01111101
01100011
01100011
00111101
00110001
00101010
00111000
00101010
00110001
00011111
00010010
00111000
00010010
00010010
00101010
00101010
00101010
00101010
00110001
00101010
00110001
01000010
01010110
01010010
01001110
01000010
00011111
00000010
00101010
00010010
00101010
00010010
00110001
00011111
00001000
00011111
00000100
00110001
01100011
01101100
01010110
01001010
01001010
01011111
01101100
01110001
01011100
10010111
10100101
10011110
01101100
10001111
11010011
10111111
01110111
01110001
01111101
01111101
10000011
10010111
10110110
10110110
01111101
10001111
01110111
01010110
01001010
01010010
01001110
01001010
00101010
00111000
00110001
00011111
00101010
00010010
00010010
00101010
00000100
00010010
00010010
00101010
00101010
00011111
00111000
01010110
01011100
01011111
01011100
01110001
00110001
00000010
00011111
00101010
00001000
00011111
00011111
00010010
00111000
01001010
00110001
00000100
01010110
10010111
01010110
01011111
01010010
01110001
01110111
01000110
01010110
01101000
01110001
10001001
01110001
10110001
10110110
10000011
10000011
10000011
10000011
10000011
01010010
10111111
11010101
10100101
10010111
11001100
10101011
01011100
01110001
01101100
01011100
01010010
01010010
01001010
00011111
01000010
00011111
00011111
00101010
00011111
00010010
00101010
00010010
00111000
01000110
01000010
01000010
01011100
01010010
01011111
01011100
01110111
00101010
00000010
00110001
00111101
00010010
00110001
00101010
00000100
00010010
00111101
00111000
00010010
00111000
00111101
01000010
01001110
01011111
01000110
01001010
01011100
01101000
10010111
10000011
01110001
11000111
11000111
01110001
01111101
01110111
01110111
10010111
01011100
01010010
01101000
11001111
01111101
01111101
01111101
10010111
01011100
01001010
01100011
01011100
00111101
00101010
00101010
01000010
00111000
00010010
00110001
00011111
00010010
00001000
00011111
00010010
00110001
01000010
01000010
01000010
01010110
01110001
01010110
01010110
01001110
00101010
00000100
00011111
00101010
00110001
00101010
00010010
00010010
00101010
01000110
00111101
00111101
01000010
01001110
01011100
01010110
01011111
01001010
01011100
01001010
01000010
01110001
01110111
01011111
11001111
10110110
01101000
10001001
01110111
01100011
01110111
10111010
11011000
01110111
11000011
11100111
10010111
10011110
01100011
00110001
00110001
01001010
01001110
00111000
00010010
00011111
00010010
00111000
00101010
00011111
00011111
00001000
00011111
00011111
00011111
00110001
00101010
00111000
01000010
01001110
01101000
01011100
01011111
01011111
00110001
00000100
00101010
00010010
00101010
00111000
00010010
00011111
00111000
00111101
01001110
00111000
00111000
01001010
01101000
01011100
01011111
01010110
01101000
01011111
01011100
01011100
01110111
10010111
10110110
10101011
01100011
11001111
11110100
10010111
10000011
10000011
11011101
11110110
11110001
11111110
11111001
10111111
01110001
10001111
01010010
01001110
01011111
01001110
00111000
01001010
00010010
00101010
00011111
00011111
00011111
00011111
00101010
00111101
00111000
00011111
00111000
01010110
00111000
00111101
01010110
01100011
01011100
01101000
00111101
00010010
00110001
00011111
00011111
00011111
00011111
00001000
00101010
00011111
00111000
01001110
01000110
01010110
01001110
01101100
01111101
01101000
01010010
01101000
01011100
10011110
01011100
10110001
11001100
10001111
01101100
11011010
11101000
11110000
10010111
01001010
11100100
11110111
11111111
11111110
11111000
11101100
11101111
10101011
01111101
01011111
00111101
01000010
00101010
00101010
00001000
00010010
00001000
00010010
00011111
00101010
00010010
00001000
00110001
00111000
01001010
01001110
01011100
01010010
01011100
01011100
01011100
01110001
00111000
00000010
00101010
00011111
00001000
00101010
00010010
01000110
00111000
00101010
00110001
01000110
00111101
01000010
01010110
10011110
10001111
01110111
10101011
11011101
11011010
11011110
11011000
10110110
10001111
10100101
11100111
11011000
11100010
11100000
01011100
00000100
01110001
11101110
11111011
11111101
10110001
11000011
11111010
11100010
11100110
01110001
01001110
01001110
00010010
00011111
00101010
00011111
00011111
00010010
00010010
00010010
00101010
00101010
00111101
01001110
01001010
01001110
01110111
10000011
01110001
10000011
01011100
01101000
00111101
00000010
00010010
00010010
00010010
00011111
00001000
00111101
00111101
00111000
00111000
00111101
01010010
01000110
01011100
10101011
11000111
11010011
10110110
11000111
10111010
10001001
10011110
10011110
10001111
11100100
11111100
11110111
11110000
11101100
10011110
01011100
10101011
11110000
11111101
11111110
11111011
11111100
11101000
11100011
11011000
01000010
00111000
00111000
00111101
00101010
00011111
00011111
00101010
00010010
00010010
00010010
00101010
00110001
00101010
01000010
00111000
01001010
01011100
01011111
01101000
01101100
01101100
01110111
00111000
00000100
00011111
00010010
00011111
00011111
00101010
00010010
00011111
00111000
00101010
00111101
00111000
01111101
01001110
10001001
10111010
10101011
10001001
10100101
10110110
10001111
10110001
10001111
01101100
11000011
10110001
11101010
11110010
11010101
11110110
11101101
11001100
11100011
11111010
11110101
11111000
11111001
11011010
01011111
11010011
10111111
11000011
01101100
01000010
01000010
00101010
00101010
00011111
00001000
00010010
00101010
00011111
00111000
00110001
00101010
01001110
01011100
01010010
01011100
01101000
01101000
01101100
01110111
00111101
00000010
00111000
00011111
00011111
00001000
00101010
00101010
00110001
00110001
00110001
01000110
01000110
01110111
10011110
11010101
10110001
10110001
01101000
10001111
10100101
01111101
10101011
10110001
10010111
10101011
11010101
10001111
11101110
10011110
11000011
11101010
01001110
11011010
11111000
11110100
11111010
11111110
11111011
11110011
11011110
11100011
11101101
01011100
00110001
00110001
00011111
00001000
00010010
00101010
00110001
00010010
00001000
00011111
00111000
00111000
00101010
01001010
01010110
01010110
01011111
01100011
01111101
01111101
00111000
00000010
00110001
00110001
00101010
00011111
00011111
00010010
00011111
00111000
00110001
00110001
01011100
10000011
11000011
10110001
01111101
10000011
10000011
10011110
10001001
01110001
10001001
10111010
10110110
10100101
11101010
11110010
11101011
01010110
01101000
11001111
10000011
10111010
11111011
11111011
11111110
11111110
11110011
11110001
01010010
01000110
00110001
00001000
00111000
00011111
00011111
00101010
00010010
00011111
00011111
00010010
00111000
00110001
00111000
01011100
00111000
01000110
01011100
01101000
01111101
01011111
01101100
10001001
01000010
00000001
00011111
00011111
00101010
00010010
00001000
00010010
00000100
00011111
00011111
00111101
01110111
11000011
10001001
01111101
01110111
01101000
10000011
10001001
10010111
01100011
01110111
10111010
11000011
01111101
11100100
11101111
10001001
01110111
01110001
11010011
01101100
01000010
11110011
11111010
11110100
11110111
11011110
10111111
01100011
00010010
00001000
00001000
00101010
00010010
00010010
00101010
00010010
00010010
00010010
00001000
00101010
00011111
00111101
01011100
01001010
01011111
01100011
01011111
01100011
01101100
01111101
01101000
00111000
00000010
00011111
00011111
00101010
00011111
00001000
00101010
00011111
00111000
00110001
10001001
11010011
11000111
10011110
01110111
01110001
10001001
10010111
01110001
01010110
01110001
01110111
10110001
10010111
10010111
11010011
10111111
10110110
10111010
11101101
11110001
11001111
11000011
11110011
11110101
11111100
11110010
11110010
11100111
01011100
00101010
00010010
00000100
00010010
00010010
00010010
00001000
00010010
00101010
00010010
00001000
00001000
00101010
01001010
01001010
01000110
01010010
01011111
01010010
01011100
01000110
10000011
01110111
00101010
00000100
00110001
00011111
00011111
00101010
00010010
00011111
00011111
00101010
01110111
11011110
10110001
10111010
10110110
10111010
10000011
10000011
10001001
10110001
10011110
01101100
10010111
10100101
01110111
01010110
10111010
10001111
10001111
11101110
11000111
10010111
11011000
01011111
11110010
11111111
11111111
11111001
11110000
11101100
00101010
00011111
00010010
00011111
00011111
00110001
00011111
00010010
00101010
00011111
00011111
00111101
00110001
00110001
00111101
00011111
01001010
01001110
01000110
01001110
01100011
01100011
01110111
10010111
01000010
00010010
00111101
00011111
00011111
00011111
00011111
00011111
00001000
00111000
11000111
11000111
01101000
01101100
01110111
01110111
10011110
10011110
01111101
10000011
01101000
10000011
01101100
01110111
01101000
01110111
01110001
10011110
11101100
10111010
10010111
01110111
10110001
01010010
11011110
11111111
11111111
10111010
10010111
10001111
00001000
00011111
00010010
00101010
00101010
00010010
00011111
00010010
00011111
00010010
00001000
00110001
00111101
00101010
00011111
00010010
00101010
01001010
01010010
01111101
01100011
01111101
10001001
10001001
01000110
00000010
00101010
00110001
00101010
00010010
00101010
00101010
00000100
10011110
10011110
01101100
01110001
01110001
01110111
01101100
01110001
01101000
10001001
01111101
01110001
10001111
01101000
01101100
10101011
10001001
10001111
11101111
11011010
01110111
10010111
01110001
01100011
11010101
11101111
11110111
11101010
10111111
10110110
00101010
00010010
00011111
00111000
00101010
00011111
00010010
00011111
00111000
01000010
00001000
00010010
00011111
00111101
00110001
00110001
01000010
01010010
00111101
01010110
01101100
01100011
01110111
10001111
10000011
01000010
00001000
00110001
00010010
00101010
00111101
00110001
00010010
00101010
11001100
01101000
10001001
10110110
11001111
01111101
10100101
10110001
01110111
10000011
10001111
01011111
01111101
10010111
10000011
01110111
01110001
11101000
11010011
10000011
10010111
01101100
01010010
01101000
10000011
11001100
01101100
01101000
10001111
10110001
00011111
00110001
00001000
00011111
00101010
00110001
00110001
00011111
00011111
00101010
00111101
01000010
01000010
00111101
00110001
00101010
01000010
01010010
01001010
01001010
01011100
01110001
01110111
10001111
10100101
01000010
00000010
00101010
00101010
00111000
00101010
00001000
00011111
00110001
10100101
01101000
01101000
01110001
10011110
01101100
01111101
10000011
01101000
10011110
10011110
01101100
01110111
10011110
10101011
10100101
11001111
11001111
01100011
01110111
10001001
01110111
01101000
10110001
11101010
11100110
11011110
10011110
10000011
10111111
01101100
00011111
00001000
00001000
00011111
00011111
00011111
00110001
00111101
00011111
01001010
01110001
01100011
01000010
00111000
01010010
01001010
01001010
01000010
00111000
01010010
01110111
01111101
01101100
01111101
01000010
00000100
00101010
01000010
00111000
00011111
00010010
00101010
00101010
00111101
10001111
10000011
01111101
10000011
01010110
01101000
01011100
10001001
11000111
10011110
01111101
01100011
01011100
10110001
11010011
10011110
01101000
01111101
01100011
01111101
10010111
10000011
10000011
11101110
11110101
11101100
11011101
10001001
10010111
01010010
00110001
00101010
00010010
00010010
00010010
00001000
00110001
00111000
00111101
01011100
01101000
01000110
00111101
00111000
00111000
00110001
00101010
01001010
01001010
01010010
01011100
01111101
10000011
01110111
00111000
00000100
00101010
00110001
00011111
00011111
00110001
00011111
00011111
00011111
01000010
01110111
10001001
10000011
10010111
01111101
01001010
01110001
10111010
10101011
10010111
10110110
11101111
11100010
10100101
01100011
01101100
10001001
10000011
01110111
10000011
01110111
10100101
10101011
10001111
11100010
11011101
11000011
01110001
00000100
00101010
00101010
00101010
00011111
00101010
00010010
00000010
00010010
00101010
01110111
01110001
01101100
01001110
01000110
00010010
00111000
00111101
01001110
01010010
01101000
01100011
01100011
01110001
01111101
00110001
00001000
00110001
00010010
00001000
00001000
00101010
00101010
00010010
00010010
00011111
01000110
10110001
10010111
01110111
01010110
01011100
01110001
10100101
10100101
10001001
11001100
11111000
11111011
11110011
10100101
01110111
01100011
10010111
10001111
10001001
01110001
10110110
11101011
11000111
10011110
10101011
11011101
10001111
00000001
00101010
00101010
00110001
00011111
00010010
00011111
00110001
00111000
00110001
10001111
11011101
11001111
00101010
01000010
00111000
00111000
01001110
01010110
01010110
01010110
01010110
01101000
01100011
01110111
00110001
00000001
00101010
00101010
00011111
00101010
00110001
00011111
00010010
00011111
00101010
00010010
10101011
10001111
01101100
01011100
01011100
01010010
01100011
01100011
01101100
11010101
11100111
11110110
11101011
10010111
01010110
10100101
11001111
10000011
01111101
01101000
01011111
11101010
11100100
11100010
10011110
10010111
11001111
00011111
00010010
00101010
00110001
00011111
00011111
00101010
01001010
00111000
00110001
01111101
11001111
10001001
00011111
00111000
00110001
01000110
01000110
00111101
01000110
01010110
01110001
01101100
01010010
01110111
00111101
00000010
00011111
00011111
00111000
00101010
00011111
00011111
00011111
00010010
00011111
00110001
10111111
01111101
01110111
01001110
01110111
01110111
10001111
10010111
10001001
01111101
10110110
11101100
11000111
10110110
10101011
10110001
10001001
11001100
10000011
01101000
10011110
11101000
11100010
11000011
00111101
01111101
11011101
01101100
00001000
00111101
00101010
00001000
00110001
00011111
00101010
00110001
01001010
01101100
10001001
10010111
00101010
00010010
00101010
01000010
01001110
00111000
01001110
01101000
01100011
01011100
01001110
01110111
00111000
00000010
00101010
00010010
00111000
00110001
00010010
00010010
00110001
00110001
00001000
00111000
10100101
01100011
01101100
01011111
01111101
10000011
01101000
01110111
10000011
01100011
10001001
11000011
10110110
11001100
11011010
01101000
10010111
10010111
01101100
10011110
11010011
11100110
11110010
01011111
00000100
01011100
11011110
11010011
00011111
00111101
00110001
00001000
00011111
00101010
00010010
00111000
01000110
00111101
01010010
01011111
00111000
00111101
00011111
00101010
01000010
00111101
01000110
01011111
01011100
01100011
01110001
10000011
01000010
00000001
00011111
00110001
00110001
00101010
00010010
00011111
00110001
00111000
00010010
01010010
10010111
01101000
01101100
01110001
01110111
10010111
01110001
01111101
01101100
01111101
01110111
10101011
10110001
10000011
10110001
10000011
10011110
00110001
00111101
11001111
11100110
11110010
11110100
01110111
00011111
00101010
10111111
11100110
11001111
11100100
11110111
11010011
00001000
00101010
00101010
00101010
01000010
01010110
01100011
01011100
00101010
01000010
00111000
01001110
01001110
01001110
01000010
00111101
01001010
01010110
10000011
01110111
00110001
00000001
00010010
00110001
00010010
00001000
00011111
00010010
00010010
00001000
00011111
10011110
10001111
10101011
10010111
01110111
01101000
01101100
01101000
10100101
10000011
10001001
10001001
10011110
10000011
10001111
10001001
10101011
10000011
00000010
01011100
11001100
11100111
11000111
11110111
01110001
00001000
01111101
11110010
11011010
11000111
10001001
11101000
11110010
10101011
00110001
01001010
01000110
00111000
01000110
01110111
11010101
00111000
01001110
01001010
00111101
01011100
01100011
01000110
00111101
00111101
01011111
01110001
01110111
00110001
00111000
10001001
10000011
01011111
00111000
00110001
00101010
00010010
00010010
01100011
10011110
01110001
01111101
10100101
10001001
01011111
01110111
10011110
10011110
10110110
10000011
10001111
10100101
01111101
10110001
10001111
11010011
01100011
00110001
10001111
10111010
11001111
10100101
11110101
01101100
00111101
11101111
11101011
11010101
11100110
01010010
01010110
10100101
11110011
11110011
10010111
01010010
01000110
00101010
01010110
10111111
00111101
01001010
01000110
00111101
01011100
01011111
01000010
01001010
01000110
01011100
01011100
01101000
00101010
01101100
11100011
11101010
11011010
01101100
00110001
00011111
00101010
01000110
10000011
10001111
10000011
01101000
01101100
01100011
10001111
01110111
10000011
10001111
10100101
10001001
10000011
10001111
01101100
10001111
10001001
10110110
00111000
10000011
11000111
11001100
11001111
10001111
11110101
10001111
01101000
11101100
10110110
10110110
11100010
10011110
01001110
01101100
10000011
10110001
10111111
01001110
01001010
01010010
01000110
10010111
01001110
00111000
01000110
01000110
01110001
01100011
01010110
01010010
01001010
01001010
01000110
01000110
00010010
10001001
11111000
11101101
11001111
01111101
00111101
01101000
10010111
11001100
10000011
10000011
10000011
01101100
01101000
10011110
10100101
10011110
01110001
01110111
10010111
10100101
01111101
10011110
10011110
10010111
01111101
11110000
11111001
11111001
11010011
10101011
11110010
11100100
11111010
10000011
01101000
10110110
01011100
10100101
11001100
11011110
01101100
01011100
01010010
00111000
00010010
01000110
00111000
01010110
01010110
01000110
01000110
01000110
01011111
01000010
00111000
01000010
01001110
01000110
01010010
01010010
01011100
01011111
00011111
01111101
11110110
11000111
10101011
11000011
10110001
11101010
11111111
11110010
10001111
10001001
01111101
01101100
10000011
10010111
10010111
01011100
01011111
10000011
10001111
10000011
10000011
10100101
10001111
01111101
11000111
11110001
11110010
11101111
11001111
11011110
11011000
11100110
11110111
01101000
01111101
11001100
01011111
01010110
11000011
11100010
10111111
00110001
01001010
01100011
01001010
01000110
01011100
11011101
01111101
00111000
01001010
01011100
10011110
01111101
01001010
10011110
01111101
00111000
01011111
11100010
11101101
11011010
01011111
11001100
11111111
11111101
11111110
11111111
11111111
11111111
11111111
11011000
01101100
10010111
01101100
01101000
01111101
01111101
10001111
01101000
01111101
10100101
10100101
10011110
10111010
10100101
01110001
01110001
11001111
11100010
11011010
11011110
10110001
11101110
11101101
11110110
11100100
10110001
10111111
01110111
01110001
01110001
11000011
11001100
11111001
11110110
11111010
11111011
11011010
01111101
11100010
11110110
11101000
10011110
10110110
11001100
11100010
11011101
11011010
10100101
10001001
10110001
11100111
11111100
11111101
11111100
11001100
10010111
11111000
11111001
11110100
11110101
11110101
11110011
11111001
10111111
01100011
01100011
10010111
10001001
01100011
10000011
10100101
10001001
10001001
10100101
10000011
10001001
10100101
01111101
10010111
10001001
11010011
11110000
11110001
11101110
10001111
11101101
11111100
11110111
10110110
10101011
11101010
11111101
11111010
11111010
11101100
11011000
11100110
11111100
11111111
11111111
11111010
11110110
11100110
11110001
11111000
11110111
11101111
11100000
10111010
11011101
11101000
11101110
11110111
11110001
11111001
11111110
11111110
11111111
11001100
01000110
10101011
10110001
10011110
10100101
10110001
10100101
11000111
01100011
10001001
10100101
10000011
10001111
10011110
10010111
10001001
10011110
01111101
01101100
01110001
01110001
10001001
10011110
10010111
11001111
11010101
11000011
11011101
11100010
10100101
11101111
11111011
11111110
11111100
11101100
11000011
11110000
11111101
11111111
11111100
11101011
10110110
11111010
11111111
11111011
11110111
11111101
11110101
11110110
11111000
11110111
11110111
11111010
11100010
11010101
11111110
11111111
11111011
11111010
11111001
11101000
11110011
11110010
10001111
01011100
01111101
01110111
10111111
10110001
01101100
10000011
11001100
01110111
01111101
10000011
10000011
10011110
10000011
01111101
10001001
10010111
10001111
01110111
10011110
10100101
10010111
10011110
01101000
11011110
11110100
11111001
11111101
11100011
11010101
11110010
11111011
11111101
11010011
11101100
11111100
11100100
11110010
11101100
11100111
11101011
11001111
11110010
11110001
11100010
11101110
11111001
11110100
11100110
11101011
11110001
11110101
11101110
11100111
11100111
11101110
11110111
11100111
11101111
11110100
11100010
11101111
11110111
10010111
01001110
10010111
10001001
10101011
11000111
10001111
10110001
11000111
10010111
01111101
01011111
10001111
10000011
10000011
10101011
10010111
10101011
01110111
01110001
01111101
10100101
10010111
01111101
10010111
11100100
10001111
01011100
10010111
10011110
11100111
11011101
11000111
11101011
11000111
10100101
11001100
11000111
10011110
10011110
10100101
10010111
10111111
11011010
11011110
10100101
10110001
10001111
10001001
10001111
10001001
10001001
01110001
10000011
10000011
10000011
01111101
10010111
10000011
10000011
10100101
10101011
10110001
10110110
01001010
01000110
10010111
10010111
10011110
10010111
10011110
11001100
10101011
10011110
01100011
10001001
01110111
01110111
01110001
01110001
10001001
01110001
10100101
10011110
01110001
10000011
10001001
10000011
10001111
11010011
01110001
01011111
10010111
11000011
11110101
11011110
01110001
11011000
11000011
01110111
10010111
10010111
10101011
10001111
10001111
10010111
10101011
10111111
11100100
10110110
10011110
10100101
10001001
10010111
10010111
10011110
10000011
10001001
10011110
10110001
10110110
10101011
10110001
10110001
10101011
10111010
11000011
10111111
01001110
01000010
10011110
10001111
10001001
10001111
10110001
11000011
10101011
10101011
10000011
10110110
01100011
01110001
10000011
01011111
01011100
10101011
10100101
01101000
10001001
01101100
01110111
01101000
11001111
10111111
10010111
01110001
10110001
11011000
11111001
11100111
10010111
11100011
11001100
10000011
10110001
10110001
10101011
11010011
11010011
10110110
11000111
11001111
11100100
11100111
11001111
11011000
11001100
11100010
11101101
11101010
11101111
11101100
11100110
11101110
11110010
11110100
11101111
11101100
11011000
11010101
11100100
11100111
01111101
01000110
10101011
10101011
10101011
10101011
11001100
11000111
10110001
10001111
01101000
01011111
01010110
01110001
01110001
01110001
01101000
01100011
01110111
01101100
10001111
10111111
10101011
10101011
11100100
10110110
10100101
10011110
11001111
11010011
11110001
11010011
10011110
11010101
10000011
10001111
10011110
10110110
10111111
10110001
10110110
10110110
11010011
11100010
11100000
11110010
11011110
11011000
11011000
11101010
11101111
11100100
11101000
11101010
11101010
11101100
11100110
11101111
11101011
11101000
11011000
11100011
11100111
11101110
01110111
01001110
11000011
10110001
10100101
10110001
10110001
11010101
11000011
01011111
10001111
01101000
01011111
10010111
10000011
01101100
10001111
01101100
01111101
10000011
10110110
10101011
10010111
11000111
11100010
10100101
10100101
10111111
11001100
11000111
11100100
10101011
10010111
11010011
10001001
10110001
10111111
10110110
10110001
10111010
11001100
11010101
10101011
11000011
11011101
11010101
11010011
10110110
10111010
10110001
10110110
10110110
11000111
10110110
10110110
10111111
10111111
10111111
11011010
11001111
11001100
11010011
11010011
11011110
01011111
01000110
10011110
10001001
10000011
10010111
10011110
10011110
11000111
10101011
01110001
01110111
01100011
01101000
10000011
10001001
10011110
10001001
01111101
10011110
10010111
10000011
10010111
11010011
11000111
10001001
01110001
11001100
11010011
11100010
11101000
10011110
10011110
10111111
10011110
10011110
10110001
10010111
10010111
10101011
10001001
10010111
10110001
10001001
10111010
10101011
11011010
10101011
10100101
10011110
10110001
10110001
10111010
10100101
10110001
10110110
10100101
10110001
11000011
10111010
11001100
11011110
11011000
11010011
01010010
01001110
10010111
10000011
10010111
10001111
10010111
10010111
10001111
11010101
10111111
01111101
01101100
01110111
01110111
10011110
10001111
10101011
10001001
10001111
01100011
10001111
10100101
11001111
10011110
10001111
10010111
11011010
11001100
11110001
10111111
10111010
10111010
10001111
10001111
10001111
10010111
10010111
10010111
10110001
10010111
10010111
10110001
11000011
10111111
11011101
11100011
10001111
01111101
10110001
10100101
10100101
10100101
10110110
10111111
11000011
11000011
11010011
11001111
11011000
11001111
11011110
11100000
11010101
01010110
01001010
10100101
10011110
10010111
10011110
10100101
10010111
10001001
11010101
11101000
11011110
10001001
10011110
01101000
10001111
10011110
10100101
01110111
01011100
01110111
10110110
10001001
11010011
10001111
10001111
10001111
11100000
11101010
11011000
10010111
10010111
10010111
01111101
10001001
10001001
10000011
10011110
10100101
10101011
10110001
10001111
10010111
10101011
10111111
11010011
11110011
11000111
10011110
10110001
10101011
10100101
10110110
11000011
11001100
11001100
11010101
11011010
11011010
11010011
11001111
11011000
11011101
11010011
01100011
01001010
10110001
10011110
10011110
10011110
10100101
10001111
10000011
11011000
11001111
11110010
11001111
01101100
10010111
01110001
01101000
01101100
10010111
10000011
01100011
10000011
10101011
11001100
10100101
10001111
10001001
11010011
11011101
11101111
10010111
10001001
10011110
10011110
10101011
10101011
10010111
10111010
10111111
10100101
10110110
10011110
10011110
10110001
10101011
11001111
11011110
11100100
11001111
10111010
10111111
11010101
11010011
11001111
11001100
11001100
11010011
11001111
11010101
11000011
11001100
11010101
11000111
11001100
01011111
01010010
10111010
11001100
10110110
10100101
10100101
10011110
10001111
11011101
11000011
11100111
11111010
10111111
10010111
01101100
01011100
01010010
01111101
10001001
01110001
01101000
11100000
11100011
10111111
11000011
11100010
11000011
11100110
11111100
11100111
11001111
11011110
11100000
11011110
11011101
10111111
10010111
10010111
10100101
10100101
10010111
10111111
11001100
10110110
11000011
11001100
11100111
11101000
10111010
10110110
11001100
11011010
11011101
10110110
11001100
11010011
11001100
11010011
11000011
11100000
11100011
11101011
11110100
10101011
01010010
10111010
11001100
11000111
10011110
10100101
10001111
10100101
11100000
11011000
11000011
11111100
11111001
11100000
10001111
01101000
01101100
01110001
01010010
01101100
10000011
11101011
11011101
11001111
11011101
11101101
10010111
11110010
11110111
11101000
11011101
11010011
11100011
11101011
11000111
10011110
10101011
10100101
10110001
10000011
10010111
10101011
10101011
10011110
10000011
10111111
11010011
11100111
10110001
10101011
10101011
11000111
11000111
10111010
11000011
10111010
11000111
10111111
10110110
10111010
10111111
11000111
11011101
01011100
01011100
10111111
10110001
10111010
11000011
10101011
10101011
10101011
11100011
11011000
10101011
11111010
11111110
11111011
11110001
10000011
01101100
10011110
10001001
11000111
11101010
11110010
10111111
11011010
11001111
11100110
10110001
11111001
11101000
11000111
11001100
10111010
11011101
11100010
11010011
10111111
11000011
10101011
10010111
10001001
10001111
10010111
01111101
10011110
10010111
10101011
11011000
11011110
11011010
10101011
10101011
11000111
10110110
10111010
10101011
10111111
11000111
11011101
11011110
11011000
11011010
11001111
11100000
01011111
01010110
10101011
10100101
10100101
10100101
10110110
10100101
10001001
11100110
11100000
10010111
11110101
11111100
11111101
11111101
11000111
01111101
10010111
11001100
11111011
11111110
11101010
10010111
10100101
11001100
11110111
11100000
11110010
11010011
11010011
10111010
10011110
10110110
10010111
10001111
10101011
10101011
10101011
10001111
10001111
10110001
10110001
10100101
10101011
10110001
10110110
11100011
11100111
11010011
10010111
10110110
10111111
11001111
11011000
10110110
10100101
11000111
11000011
10111010
11100000
11100110
11011101
11100010
01010010
01011100
11000111
11001111
10111111
11000111
11010101
11100010
11010011
11101011
11101100
10111111
11110010
11111110
11111001
11101111
11101010
10001001
10111111
11000111
11111010
11111110
11001100
10001001
10001111
11010101
11111100
11111101
11101010
10110001
10101011
10101011
10110001
10111010
10010111
10100101
10110001
11001100
11010011
10111111
10111111
11001100
10110110
10110110
10111010
10011110
10110001
11001100
11100111
10001001
10011110
11001100
11010101
11000011
11000111
11100010
11011000
10111010
11011101
11011000
11011000
11000111
11001111
11001100
01010110
01011100
11010011
11011010
11010011
11000111
10101011
11000111
11000111
11100111
11110001
11101010
11100100
11111101
11111010
11100000
11110010
11101100
11100000
11101110
11110101
11111001
10100101
10100101
10110001
11000011
11111000
11111111
11110000
10001001
10101011
10110001
10101011
10011110
10110001
11001100
10110110
10111111
11000011
10110110
11001100
10111111
10110110
11000111
10111111
10110110
10110001
10111010
11101100
11011110
10001001
11011010
11011000
11011110
11011010
11101111
11110011
11100011
11101011
11101100
11100110
11100000
11010011
10110110
01010010
00111101
10100101
10010111
10110001
10111010
10101011
10101011
10111010
11101011
11101111
11110101
11011010
11110111
11110011
11011000
11110101
11110101
11011010
11100000
11100000
11101110
10110110
10111111
10100101
11100010
11110111
11111110
10101011
10011110
10101011
10100101
10110110
10111111
11001100
10111111
11001100
11000111
10110110
10111010
10111010
10110001
10110001
11000111
11010011
11010011
11000111
11100000
11100010
11111001
10010111
11001111
11001111
11011110
11100111
11011101
11100011
11100000
11101011
11101010
11110001
11110111
11001111
11000111
01010010
01001010
11000011
10100101
11000011
10111010
10111010
10111010
11000111
11101010
11011101
11110111
11110011
11110011
11101110
10110110
11111000
11111010
11110000
11011010
10101011
11101010
11001111
11000011
10110110
11101111
11110101
11111010
11010101
11011010
11010011
11000111
10111010
10100101
10100101
10110110
11010011
10110001
10011110
10011110
10101011
10110001
10101011
10011110
10111111
10111111
10111010
11000111
10111010
11110000
11100011
10111111
11010101
11011010
11101000
11000011
11001100
11101011
11101101
11100011
11100000
11011000
11010101
11011110
01010110
01011111
11011101
10100101
10110110
11000111
11000011
11001100
11001100
11110001
11101000
11101010
11111010
11111001
11100011
10100101
11110111
11111111
11111110
11111100
11101111
11101000
11100110
11001111
10111010
11110101
11111010
11111001
11011000
11001100
11000111
11010011
10110110
10011110
10111010
11000111
11011000
11000011
10100101
10100101
11001100
10111010
10110001
10101011
10100101
10110110
10111111
11001111
11000111
11011010
11110100
10111111
10111010
10110001
10110001
10111010
10110001
11101011
11100110
11100110
11100011
11100011
11011101
11011101
01010010
01100011
11010011
11011000
11001111
11001111
11010011
11100000
11001111
11101111
11110100
11011101
11111010
11111101
11100100
11011010
11110010
11110111
11111110
11111101
11101111
11101011
11011101
11000011
11001100
11110111
11111110
11101101
10011110
11001100
11000011
10111010
10110110
11000011
11010101
11000111
11100010
11101000
11000011
10111010
11011010
11010011
11000011
10100101
10100101
10101011
10110110
11000011
10111111
10111111
11110011
11001111
10111111
11001100
11000011
11010101
11010011
11000011
11011101
11011010
11100100
11010101
11011101
11100000
01101000
00011111
01001110
01101000
01010110
01010010
01010110
01001110
01010110
10001111
10100101
01001110
10001001
10111010
10010111
01100011
01110001
01011111
10111111
11001100
01111101
01111101
01101000
01011100
01101100
10100101
10010111
01100011
01001110
01100011
01010010
01010110
01100011
01010010
01011100
01011100
01011111
01010110
01000110
01000110
01000010
01100011
01011100
01001010
01001010
01000110
01010010
01001110
01011100
01001110
01101100
01110001
01000110
01111101
01111101
10001001
01110111
01101000
01100011
01010110
01100011
01011100
01110001
10000011
00101010
