00000001
00001001
00001001
00000100
00000011
00000011
00000011
00000001
00000001
00000001
00000001
00000011
00000001
00000001
00000011
00000100
00001001
00011011
00101110
00110011
00111000
00111101
00111101
00111101
00110011
01000010
01010010
01010111
01001010
01010010
01011111
01011011
01001110
01001110
01001110
01000010
01000010
01000010
00111000
00101110
00100111
00011011
00000100
00000011
00000001
00000000
00000000
00000000
00000000
00000001
00000001
00000001
00000001
00000001
00000001
00000011
00000011
00000011
00000100
00100111
00100111
00100111
00100111
00000011
00000100
00110011
00111101
00110011
00100111
00100111
00011011
00001001
00001001
00001001
00001001
00011011
00011011
00011011
00011011
00100111
00111000
01001110
01010010
01010010
01011011
01011111
01100110
01100110
01100010
01110111
10101010
10110010
10010111
10110010
11010001
11001000
10101010
10100100
10010001
01110111
01110111
01111101
01101001
01010111
01010010
01001010
01000010
00111000
00101110
00011011
00000100
00000100
00000100
00001001
00011011
00011011
00001001
00001001
00100111
00101110
00100111
00100111
00110011
01000110
01001010
01001110
01001010
00100111
00000100
00110011
00111101
00111000
00101110
00100111
00100111
00011011
00011011
00011011
00011011
00011011
00100111
00100111
00100111
00100111
00111000
01001110
01010010
01010010
01011011
01100010
01100110
01101001
01101111
10010111
11001000
11000010
10101010
11001000
11011101
11011010
11010100
11001000
10110010
10010111
10010001
10010111
10000100
01101001
01011111
01011011
01011011
01001110
01000010
00110011
00011011
00001001
00001001
00011011
00101110
00100111
00011011
00100111
00101110
00101110
00101110
00110011
00111101
01000110
01001110
01010111
01001110
00100111
00000011
00100111
00110011
00110011
00100111
00100111
00100111
00011011
00100111
00100111
00011011
00011011
00100111
00101110
00101110
00101110
00110011
01000010
01000110
01001110
01010111
01011111
01100010
01101001
10000100
10011101
10110010
10110010
10100100
10111110
11010100
11010001
11001000
10111110
10110010
10010111
10010001
10010001
01111101
01100110
01010111
01010010
01010010
01001010
00111101
00110011
00100111
00011011
00011011
00011011
00100111
00100111
00011011
00011011
00100111
00100111
00100111
00110011
00111101
01000010
01000110
01001010
01000110
00011011
00001001
00101110
00110011
00101110
00100111
00101110
00100111
00100111
00011011
00011011
00001001
00001001
00011011
00101110
00111000
01000010
01000110
01001010
01001110
01001110
01010010
01100010
01101001
01110111
10010001
10101010
10111110
11000010
11000010
11001000
11010001
11001000
10111000
10111000
10110010
10011101
10010111
10001011
01101111
01011111
01001110
01000110
01000010
00111101
00111101
00101110
00100111
00011011
00011011
00011011
00001001
00011011
00011011
00011011
00011011
00100111
00101110
00110011
00111101
00111101
01000010
01000010
00111101
00001001
00011011
00111000
00110011
00101110
00101110
00100111
00100111
00011011
00011011
00001001
00000100
00001001
00001001
00011011
00110011
01000010
01000010
01001110
01010111
01001110
01001110
01011111
01101001
01111101
10010111
10111000
11011000
11011101
11010001
11000010
11001000
11000010
10111110
11001000
10111110
10111000
10111000
10011101
01110111
01011011
01000110
00111000
00111000
00111000
00111000
00101110
00011011
00011011
00011011
00001001
00001001
00011011
00100111
00100111
00100111
00101110
00101110
00111000
00111101
01000010
00111101
00111101
00111000
00001001
00100111
00111101
00110011
00101110
00101110
00100111
00011011
00011011
00011011
00011011
00001001
00011011
00011011
00011011
00100111
00100111
00101110
00111101
01000110
01000110
01001010
01011011
01101001
01111101
10010111
10110010
11011000
11100000
11001000
10101010
10111000
10111000
11001000
11011010
11010100
11010001
11001000
10101010
10001011
01100110
01001110
01000110
01000010
00111000
00110011
00101110
00100111
00100111
00011011
00001001
00001001
00011011
00100111
00101110
00101110
00101110
00110011
00111000
00111101
01000010
00111101
00111101
00111101
00011011
00011011
00111000
00110011
00100111
00011011
00011011
00011011
00011011
00011011
00011011
00011011
00100111
00110011
00110011
00100111
00011011
00101110
00111000
00111101
00111101
01001010
01010111
01100010
01101111
10001011
10100100
11001000
11011000
11000010
10100100
10100100
10100100
10110010
11001000
11001101
10111110
10100100
10010111
10010001
01110111
01100010
01010111
01001010
00111000
00101110
00101110
00110011
00101110
00011011
00001001
00001001
00011011
00100111
00101110
00110011
00100111
00100111
00110011
00111101
01000010
01000010
01000010
00111101
00011011
00001001
00110011
00110011
00100111
00011011
00001001
00011011
00011011
00011011
00011011
00100111
00110011
01000010
01000010
00111000
00111000
01000110
01001010
01001010
01001110
01011111
01100110
01100110
01101111
10010111
10110010
11010001
11011101
11010100
10111000
10101010
10110010
10101010
10011101
10100100
10100100
10001011
01111101
10000100
01101111
01011111
01001110
01000110
00111000
00101110
00101110
00101110
00100111
00011011
00001001
00001001
00011011
00101110
00110011
00110011
00100111
00011011
00101110
00111101
01000110
01000110
01000110
00111101
00011011
00000100
00101110
00101110
00100111
00011011
00011011
00001001
00001001
00001001
00011011
00110011
01000110
01001110
01001010
01000010
01001010
01010111
01011011
01010111
01100110
10001011
10010001
01111101
10000100
10100100
11000010
11001101
11010100
11001000
10110010
10101010
10111000
10111000
10101010
10100100
10100100
10010001
01110111
01100110
01011011
01001010
00111101
00111000
00110011
00101110
00101110
00100111
00011011
00011011
00011011
00001001
00011011
00100111
00100111
00101110
00100111
00100111
00110011
01000010
01001110
01001110
01001110
01000110
00100111
00000011
00011011
00100111
00011011
00011011
00011011
00011011
00011011
00011011
00011011
00110011
01010010
01011111
01010010
01001010
01010010
01011011
01100010
01011011
01100110
10000100
10010001
10000100
10000100
10011101
10111000
10110010
10011101
10010001
10001011
10001011
10010001
10101010
10111000
10101010
10011101
10010111
01111101
01011111
01010010
01001110
01000110
01000010
00111000
00110011
00101110
00100111
00100111
00011011
00011011
00011011
00001001
00011011
00011011
00100111
00101110
00101110
00111000
01001010
01010010
01010111
01010111
01010010
00101110
00000001
00011011
00100111
00011011
00011011
00011011
00011011
00100111
00110011
00100111
00101110
01001010
01011011
01010111
01001110
01010010
01011011
01011111
01010111
01011111
01101111
01111101
01111101
10001011
10011101
10100100
10010001
01111101
01110111
01110111
01101001
01101001
10010111
10111000
10100100
10010001
10010111
10000100
01100010
01011011
01011011
01010010
01000110
00111101
00111000
00110011
00101110
00100111
00011011
00011011
00011011
00001001
00001001
00011011
00101110
00111000
00111000
01000010
01001110
01010111
01010111
01011011
01010010
00101110
00000001
00011011
00100111
00100111
00100111
00011011
00001001
00100111
00111000
00110011
00101110
00111101
01001010
01001110
01010010
01010010
01010010
01010010
01010010
01011011
01101001
01110111
01111101
10100100
10101010
10001011
01110111
01110111
01110111
01110111
01110111
01101111
10001011
10111000
10101010
10010001
10010001
01110111
01011011
01001110
01010111
01001110
01000010
00110011
00101110
00110011
00101110
00100111
00100111
00011011
00001001
00001001
00011011
00011011
00101110
00111000
00111101
01000010
01010010
01011011
01011011
01010111
01001110
00100111
00000011
00011011
00100111
00100111
00100111
00011011
00011011
00100111
00111000
00111000
00110011
00111000
01000110
01001110
01010010
01010010
01001110
01010010
01010010
01010111
01100110
01101111
10000100
10101010
10100100
10000100
10010001
10010111
10000100
01111101
10010111
10110010
11000010
11011101
11100100
11010001
10011101
01101001
01010010
01000110
01001010
01001010
00111101
00101110
00100111
00100111
00100111
00100111
00011011
00011011
00001001
00011011
00100111
00100111
00101110
00110011
00111000
00111101
01001010
01010111
01011011
01010111
01001110
00101110
00000011
00011011
00011011
00100111
00100111
00011011
00011011
00101110
00111000
00111101
00111101
00111101
01001010
01010111
01011011
01011011
01011011
01010111
01010111
01010111
01100010
01101111
10010001
10101010
10010111
10001011
11000010
11011101
11000010
10001011
10011101
11011101
11110011
11111001
11111100
11110101
11011010
10100100
01101111
01010111
01001110
01001010
01000010
00110011
00101110
00100111
00011011
00011011
00011011
00011011
00011011
00011011
00100111
00101110
00101110
00111000
01000010
01000010
01000110
01010010
01011011
01011011
01010111
00110011
00000011
00011011
00011011
00011011
00011011
00011011
00100111
00100111
00101110
00111000
00111101
01000010
01001010
01010111
01100110
01101001
01100110
01100110
01110111
10000100
10001011
10010001
10011101
10101010
10011101
10101010
11011000
11101010
11100000
10010001
01101111
11010100
11111000
11111110
11111111
11111000
11101110
11100100
11001000
10001011
01011111
01001010
00111101
00110011
00100111
00011011
00001001
00001001
00001001
00011011
00011011
00011011
00100111
00101110
00111000
01000010
01001010
01010010
01010111
01011011
01011111
01011111
01010111
00111000
00000011
00011011
00011011
00001001
00011011
00100111
00101110
00110011
00101110
00110011
00111101
01000010
01000110
01011011
01111101
10010001
10001011
10010111
10111000
10111110
10111110
10110010
10100100
10100100
11001000
11100100
11101100
11101110
11100000
10001011
01011011
10110010
11110101
11111110
11111110
11110110
11110011
11110100
11101000
11000010
01101001
01000110
00111101
00101110
00011011
00011011
00011011
00011011
00001001
00001001
00011011
00011011
00100111
00110011
00111101
01000010
01001110
01011111
01100010
01100110
01100110
01100010
01011011
00111000
00000001
00001001
00001001
00001001
00011011
00011011
00101110
00110011
00110011
00110011
00111000
01000010
01001010
01011111
10001011
10110010
10110010
10110010
10111110
10111110
10110010
10101010
10010111
10011101
11011010
11110010
11110101
11110011
11101000
11000010
10010001
10111110
11110011
11111101
11111110
11111011
11111000
11110010
11100010
11001000
01111101
01010111
01000110
00111000
00101110
00100111
00011011
00011011
00001001
00001001
00011011
00100111
00101110
00110011
00111000
01000010
01001010
01010111
01011111
01100110
01100110
01100110
01011111
00111000
00000001
00001001
00011011
00011011
00011011
00011011
00100111
00101110
00101110
00110011
00111000
01000110
01011011
01101001
10010111
10110010
10101010
10010111
10011101
10100100
10010111
10010111
10010001
10010111
11000010
11100010
11101111
11110000
11101000
11100110
11011101
11010001
11101110
11111011
11111101
11111101
11111100
11110011
11011010
11001101
10111110
10010111
01100010
01000010
00110011
00100111
00011011
00011011
00001001
00011011
00011011
00011011
00100111
00101110
00110011
00111101
01001010
01010010
01010111
01011111
01100010
01101001
01011111
00111000
00000011
00011011
00100111
00011011
00011011
00011011
00011011
00100111
00101110
00110011
00111000
01001110
01101001
10010001
10101010
10101010
10010001
10000100
10001011
10010001
10001011
10010111
10011101
10011101
10110010
11010001
11100100
11100110
11010001
11010100
11011000
10111000
11100010
11111001
11111101
11111110
11111110
11111010
11101110
11010100
11001000
10101010
01011111
00111000
00101110
00100111
00011011
00011011
00011011
00011011
00011011
00011011
00100111
00110011
00111000
00111101
01000110
01010010
01011011
01011111
01100010
01101001
01100010
00111000
00000001
00011011
00100111
00011011
00011011
00011011
00011011
00011011
00100111
00101110
00111101
01011011
10000100
10100100
10100100
10001011
01111101
01111101
10001011
10000100
01110111
10001011
10101010
10101010
10111110
11100010
11101100
11011010
10010111
10010001
10110010
10010111
11001101
11110111
11111110
11111111
11111110
11111001
11101010
10011101
01100010
01010010
00111000
00101110
00100111
00011011
00011011
00011011
00011011
00011011
00011011
00100111
00101110
00111000
01000010
01000010
01001010
01010111
01011111
01100010
01100010
01101001
01100010
00111101
00000001
00001001
00100111
00100111
00011011
00001001
00001001
00011011
00100111
00110011
01001110
01111101
10100100
10010111
10000100
01110111
01110111
01111101
01111101
01110111
01101001
01111101
10100100
10101010
10111000
11100000
11100110
11001000
10010001
10101010
11001000
10011101
10111110
11110101
11111101
11111101
11111011
11110100
11010100
01101001
00110011
00001001
00001001
00011011
00011011
00011011
00011011
00011011
00001001
00001001
00001001
00011011
00101110
00111101
01001010
01001010
01001110
01011011
01011011
01011111
01100010
01101001
01011111
00111000
00000001
00001001
00011011
00011011
00011011
00001001
00011011
00011011
00101110
01001010
01111101
10110010
10111000
10011101
10000100
01110111
01111101
10000100
01111101
01101111
01101001
01111101
10010111
10010001
10010111
11000010
11001000
10111000
11001000
11011010
11011101
11000010
11001000
11110101
11111111
11111111
11111100
11110101
11011010
01100110
00101110
00001001
00001001
00001001
00011011
00001001
00001001
00011011
00011011
00011011
00011011
00011011
00101110
00111101
01000010
01000110
01001110
01010010
01010010
01010111
01011111
01101001
01100010
00111000
00000011
00011011
00100111
00011011
00011011
00011011
00011011
00011011
00111101
01101111
10110010
10110010
10100100
10011101
10010001
10000100
10000100
10001011
10000100
01110111
01101111
01111101
10001011
01110111
01110111
10010111
10101010
11001000
11011010
11010100
11001000
10111000
10111110
11110111
11111111
11111111
11111100
11110000
11010001
01011011
00100111
00001001
00011011
00011011
00011011
00011011
00001001
00011011
00011011
00011011
00100111
00101110
00101110
00110011
00110011
00111101
01000110
01001110
01010111
01011011
01100010
01101111
01101001
00111101
00000100
00100111
00100111
00011011
00011011
00011011
00011011
00100111
01010010
10010001
10100100
10001011
01111101
01111101
10000100
10000100
10000100
10000100
01111101
01110111
01110111
01101111
01110111
01101111
01101111
10010001
11000010
11011000
11001000
10011101
10001011
10001011
10101010
11110101
11111111
11111111
11110010
11001000
01111101
00111101
00011011
00011011
00100111
00011011
00011011
00011011
00011011
00100111
00011011
00011011
00101110
00110011
00101110
00100111
00101110
00111000
01000110
01010010
01011111
01100010
01101001
01111101
01101001
01000010
00000011
00100111
00100111
00100111
00100111
00100111
00011011
00111000
01100110
10010001
10000100
01111101
01111101
01110111
01110111
01111101
01110111
01111101
01110111
01101111
01110111
01101111
01101111
01111101
10001011
10111000
11011010
11010001
10011101
01111101
01101001
01110111
10110010
11101100
11110111
11110000
11001101
10001011
01001110
00100111
00011011
00100111
00100111
00100111
00011011
00011011
00100111
00101110
00100111
00100111
00101110
00110011
00101110
00101110
00111000
01000010
01000110
01010010
01011111
01100110
01101111
10000100
01101111
01000010
00000011
00011011
00100111
00100111
00101110
00100111
00011011
01000110
01110111
01111101
01110111
10010001
10010111
10000100
10000100
10000100
01110111
01111101
01111101
01101111
01110111
10000100
10000100
10001011
10100100
11001101
11001101
10100100
10000100
01101111
01100110
01111101
10111110
11011010
11010001
10101010
10011101
10000100
01001110
00100111
00011011
00011011
00100111
00100111
00100111
00100111
00100111
00101110
00111000
00111101
01000010
00111000
00110011
00111000
01000010
01000110
01000110
01001010
01010111
01100110
01101111
01111101
01101111
01000010
00000011
00011011
00101110
00101110
00100111
00011011
00011011
01000010
01100110
01101111
01101111
10000100
10001011
01110111
01110111
01110111
01111101
10010001
10001011
01101111
01101111
10000100
10010111
10100100
10110010
10110010
10010001
01110111
01111101
01101111
01101111
10011101
11011101
11101000
11011000
10101010
10010111
10001011
01011011
00110011
00001001
00001001
00011011
00011011
00011011
00100111
00101110
00110011
01000110
01010111
01001110
00111101
00111000
00111101
01000010
01000010
01000010
01000010
01010010
01100010
01101111
01110111
01100110
00111101
00000011
00100111
00101110
00101110
00100111
00011011
00011011
00110011
01001010
01100010
01101111
01110111
01110111
01101001
01100110
01100010
01111101
10011101
10010111
01111101
01111101
10011101
10111000
10111000
10011101
10000100
01101111
01101111
01110111
01111101
01111101
10101010
11100010
11101110
11101000
11010100
10100100
01111101
01010010
00110011
00011011
00011011
00011011
00001001
00001001
00100111
00101110
00111101
01010010
01011111
01010010
01000010
00111000
00111000
00110011
00111000
01000010
01001010
01010010
01011111
01101001
01101111
01100010
00111000
00000011
00011011
00100111
00100111
00011011
00100111
00100111
00011011
00101110
01001010
01100110
01111101
10000100
01110111
01100010
01011111
01110111
10011101
10011101
10010111
10111110
11100100
11101000
11010001
10010001
01101111
01101111
01110111
01111101
01111101
10000100
10100100
11010001
11011000
11011010
11010100
10111000
01101111
00111101
00100111
00100111
00100111
00011011
00011011
00001001
00011011
00100111
00111101
01100010
01111101
01100110
01001010
00111000
00101110
00110011
00111101
01000110
01001110
01010111
01011011
01100010
01101001
01011111
00111000
00000011
00011011
00011011
00001001
00011011
00100111
00011011
00011011
00011011
00101110
01010010
01111101
10001011
01101111
01011111
01011011
01100110
10000100
10001011
10010111
11011000
11110101
11111000
11101010
10101010
01101111
01110111
10001011
10001011
01110111
01110111
10101010
11011000
11010100
11001000
11000010
10111110
01111101
00111000
00011011
00100111
00100111
00011011
00011011
00011011
00100111
00101110
01000010
01110111
10110010
10001011
01001110
00110011
00110011
00111000
01000010
01001010
01001110
01010111
01011011
01011111
01100010
01011011
00111000
00000001
00011011
00011011
00011011
00100111
00100111
00011011
00011011
00011011
00100111
01000110
01111101
10001011
01101001
01011011
01011011
01100010
01101111
01110111
10001011
11001000
11101110
11110110
11101100
10110010
01111101
10010001
10100100
10010111
01111101
01101111
10100100
11100000
11100100
11001000
10011101
10100100
10010111
01001110
00100111
00100111
00100111
00011011
00011011
00100111
00110011
00110011
01000110
01110111
10101010
10000100
01000110
00101110
00110011
00111101
01000010
01000010
01001010
01010111
01011111
01011111
01011111
01011011
00111000
00000001
00001001
00100111
00100111
00100111
00011011
00011011
00011011
00011011
00011011
01000110
01110111
01111101
01100110
01011111
01100010
01101001
01101111
01110111
01111101
10010111
11001101
11100100
11011010
10111000
10100100
10010111
10011101
10011101
10000100
01110111
10110010
11100100
11100110
10110010
01100110
10000100
10110010
01101111
00111000
00101110
00100111
00011011
00011011
00100111
00101110
00110011
01000110
01011111
01110111
01100110
01000010
00100111
00101110
00111000
00111101
00111101
01001010
01010111
01011111
01011011
01011111
01011011
00111000
00000001
00001001
00100111
00101110
00100111
00011011
00011011
00100111
00100111
00100111
01001010
01101111
01101111
01100010
01100010
01101111
01110111
01110111
01110111
01110111
01110111
10010111
10111110
10111110
10111110
10110010
10010001
10000100
01111101
01101111
10010111
11011000
11101110
11101000
10010001
01000110
01100010
10111110
10110010
01100110
01011111
01100010
01001010
00101110
00011011
00100111
00110011
01000010
01001110
01011011
01010111
00111101
00101110
00101110
00111000
00111101
01000010
01000110
01001110
01010111
01011011
01100110
01100010
00111000
00000001
00001001
00100111
00100111
00011011
00011011
00011011
00100111
00100111
00110011
01010111
01110111
01110111
01101001
01101001
01101111
01110111
01101111
01110111
01110111
01110111
10000100
10011101
10011101
10011101
10011101
10010001
01101111
01010010
01011111
10111000
11100100
11110010
11101110
10010001
00111101
01011111
11001000
11011010
10111110
11001000
11011010
10110010
01010111
00101110
00101110
00110011
00111101
01001010
01011111
01011011
01000110
00111000
00111000
00111101
01000110
01001010
01000010
01000010
01001010
01011011
01101001
01100010
00111000
00000100
00110011
00111101
00110011
00100111
00011011
00011011
00011011
00011011
01000010
01101001
10000100
10000100
10000100
01110111
01101001
01101001
01110111
10000100
10000100
10000100
10001011
10010001
10010001
10001011
10010111
10010111
01100110
01000110
01011111
10111110
11100000
11101010
11101010
10010111
01010010
10010111
11100010
11100100
11010001
11001000
11011101
11100000
10111000
01101111
01010010
01000010
00111101
01001010
01100110
01110111
01010010
01000010
01000010
01000110
01001110
01010010
01000110
00111101
01000110
01010111
01100110
01011011
00110011
00111101
01101111
10000100
01100010
01000110
00101110
00011011
00011011
00110011
01010111
01111101
01111101
01111101
10000100
01110111
01101001
01101111
10000100
10010001
10010111
10001011
10001011
10001011
10000100
10001011
10011101
10010111
01100110
01010111
01111101
10111110
11001101
11011101
11100100
10100100
01101111
11010100
11100110
11100000
11001101
10010001
10000100
10111110
11011010
11010001
10001011
01010010
01000010
01000010
01100010
01110111
01010111
01000010
01000010
01000110
01010010
01010111
01001010
01000010
01000110
01001110
01010111
01001110
00101110
01100110
11011000
11100000
10111000
01100010
00111101
00111000
01000110
01010111
01101111
01111101
01110111
01101001
01101111
01110111
01111101
01111101
01111101
10001011
10010001
10001011
10000100
10000100
10000100
10001011
10011101
10111000
10101010
10101010
10111110
11001101
11010001
11100010
11101000
10111000
10010001
11001101
11001101
11001000
11010001
10011101
01100110
01101111
10011101
10100100
01111101
01010010
01000110
01000110
01010111
01100010
01001110
01000010
01000010
01000110
01010010
01010010
01001110
01001010
01001010
01001010
01001110
01000110
00011011
10010001
11101110
11101110
11001101
10000100
01100010
01111101
10111000
10111000
10010111
01111101
01110111
01101001
01101111
10000100
10001011
01111101
01101111
01111101
10001011
10001011
10000100
10001011
10001011
10001011
10111000
11100110
11110010
11101110
11011101
11011000
11100010
11101111
11101111
10111110
10001011
10011101
10001011
10010111
11001000
11000010
10000100
01011011
01010111
01010111
01001110
01000110
01001110
01011111
01011011
01001110
01000110
01001010
01010010
01001110
01001110
01010010
01010010
01001010
01010010
01100110
01110111
01100010
00111000
10101010
11110101
11110100
11101000
11100010
11100010
11110011
11111000
11101100
10101010
01111101
01110111
01101001
01110111
10001011
10000100
01101111
01101001
01111101
10001011
10001011
10010001
10010001
10001011
10001011
11001000
11101111
11110101
11110000
11100000
11100000
11101100
11110100
11101111
10111110
10001011
10010001
01101111
01110111
10111110
11011000
11001101
10011101
10010001
10001011
01100110
01011011
10000100
10111000
10010111
01011111
01011011
01101111
10001011
01111101
01101001
01101111
01100110
01100010
10010001
11011101
11101010
11011000
01100110
10111110
11111010
11111101
11111011
11111100
11111101
11111110
11111101
11101010
10010111
01110111
01110111
01101111
01101111
01111101
10000100
01101111
01110111
10001011
10010001
10010001
10010111
10010001
01111101
10010001
11010001
11101010
11101111
11100110
11011101
11101100
11110101
11110110
11101000
11000010
11000010
11001101
11000010
10111110
11010001
11100010
11110000
11110101
11110111
11110101
11100100
11001000
11011101
11101111
11101000
11001101
10111000
11000010
11001101
11010001
11001101
11001000
10111110
11001101
11101100
11111011
11111110
11111001
10111000
10010111
11110011
11111001
11111000
11111000
11111000
11111001
11110101
11010001
01111101
01110111
01111101
01110111
01110111
10000100
10001011
10000100
10000100
10001011
10000100
10001011
10010001
10010001
10001011
10100100
11010100
11101000
11101110
11100100
11011010
11110010
11111100
11111011
11101110
11011010
11100100
11110101
11111000
11111000
11110011
11101010
11110011
11111101
11111111
11111111
11111100
11110110
11110101
11110111
11111001
11110110
11110010
11101010
11100000
11100100
11110011
11110110
11110101
11110111
11111011
11111101
11111111
11111100
11001000
01011011
10111000
11010001
11010001
11010001
11001101
11010001
11001101
10010111
01110111
01111101
10000100
10000100
10000100
10000100
10001011
10001011
10000100
01110111
01110111
10000100
10001011
10001011
10010111
11001000
11100010
11101110
11110000
11100110
11011101
11110100
11111101
11111110
11110111
11101110
11110000
11111000
11111101
11111110
11111001
11101110
11101100
11111010
11111111
11111110
11111101
11111100
11111010
11111000
11111010
11111011
11111010
11110110
11101010
11101110
11111010
11111110
11111100
11111011
11111011
11111001
11111010
11110110
10101010
01001010
01110111
10010001
10100100
10100100
10010001
10011101
10101010
10001011
01110111
01111101
10000100
10001011
10001011
10001011
10001011
10001011
01111101
01110111
10000100
10001011
10010001
10001011
10011101
11011000
11101000
11101110
11101111
11100100
11100010
11110011
11111011
11111011
11110011
11101110
11110000
11110000
11110100
11110100
11101111
11100100
11100010
11110011
11110110
11110010
11110011
11110101
11110011
11101110
11101110
11110000
11110010
11101110
11100100
11100100
11110010
11110110
11110011
11110010
11110000
11101100
11101111
11101000
10000100
01000110
01110111
10010001
10100100
10100100
10010111
10100100
10110010
10010001
01110111
01101111
01111101
01111101
01111101
10000100
10001011
10001011
10000100
01111101
10000100
10001011
10001011
10000100
10100100
11001101
11001000
10111000
11001000
11011000
11100110
11101000
11101000
11101010
11011010
11001101
11011000
11010100
11001000
11000010
10111110
10111110
11001101
11100000
11100010
11010001
11001000
11001101
11000010
10111000
10111000
10111000
10111000
10110010
10110010
10110010
10111110
11000010
10111110
11000010
11001000
11001000
11010001
10111110
01011111
01000110
01110111
10010001
10010111
10011101
10100100
10110010
10110010
10010001
01111101
01110111
01110111
01101111
01101111
01110111
01111101
10000100
10001011
01111101
01110111
01111101
01111101
10000100
10100100
10111000
10001011
01101111
10010001
11011000
11101111
11100100
11001000
11010001
11000010
10011101
10011101
10100100
10100100
10100100
10100100
10100100
10111000
11010001
11011101
11001101
10110010
10100100
10100100
10101010
10111000
10111000
10110010
10110010
10111000
11000010
11001101
11001101
11001000
11000010
10111110
10111110
11001101
10110010
01010111
01000110
01111101
10010001
10010001
10010111
10110010
10111000
10101010
10010001
01111101
01110111
01101001
01101001
01101001
01100110
01100110
01111101
10000100
01111101
01111101
10000100
01111101
10010001
10111000
10111000
10010001
10000100
10101010
11100010
11110011
11100110
11000010
11001101
10111110
10010111
10010111
10100100
10110010
10111000
10111000
10111000
11000010
11011000
11100100
11100100
11011000
11001101
11010001
11011101
11100110
11100110
11100110
11100110
11100110
11101010
11101111
11110000
11101110
11100110
11011010
11011010
11100100
11011000
01101001
01001010
10001011
10011101
10011101
10100100
10111110
11000010
10101010
10001011
01110111
01100110
01100010
01101001
01101111
01101001
01100110
01101111
01110111
01110111
10001011
10010111
10010111
10110010
11010001
10111110
10011101
10100100
11000010
11100000
11101100
11011010
10111110
11000010
10101010
10010111
10100100
10110010
10110010
10111110
10111110
11000010
11001101
11011010
11100110
11101010
11100010
11010100
11011000
11100100
11101010
11101000
11101010
11101010
11101000
11101010
11101110
11101111
11101111
11101000
11100000
11100000
11101000
11100000
01110111
01001010
10001011
10100100
10011101
10100100
10110010
11000010
10110010
10001011
01101111
01100110
01100010
01101111
01110111
01110111
01110111
01101111
01110111
10000100
10010111
10011101
10100100
11001000
11010001
10110010
10011101
10111000
11001101
11011101
11100010
11001000
10101010
10110010
10100100
10011101
10101010
10101010
10101010
10110010
10111000
10111110
10111110
11001000
11011000
11011101
11011000
11001000
10111110
11001000
11001101
11001101
11010001
11001101
11001101
11010001
11010001
11010100
11011010
11011000
11011000
11011010
11100000
11010001
01100010
01001010
01111101
10010001
10010001
10010111
10011101
10101010
10110010
10011101
10000100
01101111
01100110
01101001
01110111
10000100
10001011
10000100
10000100
10001011
10001011
10001011
10100100
11000010
10111110
10010111
10010111
10111110
11011000
11100010
11011101
10111110
10100100
10101010
10011101
10011101
10100100
10011101
10011101
10100100
10100100
10100100
10100100
10110010
10111110
11001101
11010001
10111000
10011101
10100100
10100100
10101010
10110010
10101010
10110010
10111000
10111000
10111110
11001000
11001101
11010001
11011010
11011101
10111110
01011011
01000110
01110111
10001011
10001011
10010001
10010001
10010111
10100100
11000010
10111110
10010111
01110111
01101111
01110111
10001011
10010001
10010001
10000100
01110111
01110111
10001011
10100100
10111110
10101010
10010001
10011101
11001101
11100010
11100100
11010100
10110010
10100100
10010111
10010001
10010001
10010001
10010001
10010111
10011101
10010111
10010111
10100100
10110010
10111110
11011000
11011101
10111110
10010111
10011101
10100100
10100100
10101010
10110010
10111110
11000010
11001000
11001101
11010001
11010001
11010100
11011101
11011101
11000010
01011011
01001010
01111101
10010111
10010001
10010111
10010111
10010001
10011101
11001101
11100000
11010100
10100100
01111101
01110111
01111101
10001011
10001011
01111101
01101001
01101111
10001011
10100100
10111000
10100100
10001011
10100100
11010100
11100110
11100000
10111110
10010111
10010111
10001011
10001011
10001011
10010001
10010111
10100100
10100100
10011101
10010111
10011101
10101010
10111110
11011101
11100110
11010100
10110010
10101010
10101010
10110010
10111000
11000010
11001000
11001101
11010001
11011000
11011000
11010100
11010100
11011010
11011010
10111110
01011011
01001010
10001011
10100100
10011101
10011101
10010111
10010001
10011101
11001101
11100010
11101010
11011101
10100100
01111101
01101111
01101001
01101111
01110111
01101111
01101111
10000100
10110010
11001000
10110010
10011101
10110010
11010100
11101010
11101100
11010001
10101010
10101010
10110010
10110010
10101010
10100100
10100100
10100100
10100100
10100100
10011101
10100100
10101010
10111000
11010001
11100010
11100010
11010100
10111110
10111110
11001000
11010001
11010001
11001101
11001101
11010100
11010100
11010100
11010001
11010100
11011010
11100000
11010001
01101001
01001110
10010111
10111110
10110010
10100100
10010111
10010001
10101010
11001101
11011101
11101110
11110100
11100010
10101010
01110111
01011111
01100010
01101111
01101111
01101001
10010001
11010001
11011010
11001000
11001101
11010100
11011000
11101111
11110111
11101100
11010100
11010100
11011010
11011010
11001101
10110010
10100100
10011101
10011101
10010111
10011101
10101010
10110010
10110010
10111110
11010100
11100100
11100010
11001000
10111000
11001000
11010100
11010001
11001000
11001000
11001101
11001101
11001101
11001101
11010100
11011101
11100110
11100000
01111101
01010010
10011101
11000010
10111110
10101010
10011101
10010111
10110010
11011000
11011000
11101000
11111001
11111001
11101010
10111000
01110111
01100110
01101001
01101111
01111101
10111110
11100010
11100010
11010100
11011101
11100000
11100000
11110011
11110111
11101110
11011101
11011010
11100100
11100110
11010100
10111000
10100100
10011101
10010111
10010001
10010001
10011101
10100100
10011101
10011101
10111110
11011101
11100010
11001101
10110010
10111000
11001000
11001000
10111110
10111110
11000010
11001000
11001101
11001101
11010001
11010100
11011101
11010100
01101001
01010010
10010111
10110010
10110010
10110010
10100100
10011101
10111000
11011010
11011000
11100010
11111001
11111110
11111100
11110000
10110010
01110111
10000100
10100100
11011000
11101111
11101110
11011010
11001101
11100000
11100110
11101000
11110011
11110010
11100000
11001101
11001000
11011000
11011010
11001000
10111000
10110010
10100100
10010111
10001011
10010001
10010111
10010001
10010111
10011101
10111000
11011010
11100010
11010001
10110010
10101010
10111110
11000010
10111110
10111000
10111000
11001000
11010001
11010100
11011000
11011010
11011010
11001000
01011111
01010010
10010111
10110010
10110010
10110010
10111000
10111000
11001000
11100010
11100000
11100000
11110111
11111111
11111111
11111001
11011010
10010111
10011101
11011000
11110111
11111011
11101111
11000010
10110010
11100000
11110011
11110101
11110010
11100010
11001000
10111000
10110010
10111000
10110010
10101010
10101010
10110010
10101010
10011101
10011101
10100100
10100100
10011101
10100100
10100100
10111110
11011010
11100010
11001101
10101010
10110010
11000010
11001000
11001101
11000010
10111110
11001000
11010001
11010100
11011101
11100000
11011101
11001000
01011111
01010111
10101010
11001000
11000010
11000010
11001000
11001101
11011000
11101010
11101100
11100110
11110110
11111110
11111101
11111000
11101010
11001101
11001000
11101000
11111011
11111100
11100110
10100100
10100100
11100010
11111011
11111101
11110100
11010001
10110010
10101010
10101010
10100100
10011101
10100100
10110010
10111110
10111110
10111000
10111000
10111110
10111000
10110010
10110010
10101010
10111000
11011000
11100000
11001000
10101010
11000010
11010001
11010001
11011000
11100000
11011101
11011000
11011101
11100000
11100000
11011101
11011000
10111000
01010111
01010010
10101010
11001101
11001000
11000010
10111110
11001000
11011000
11101100
11110011
11110000
11110101
11111100
11111011
11110101
11110011
11101110
11100100
11101110
11110111
11110110
11011010
10100100
10110010
11100010
11111100
11111111
11110011
10111110
10011101
10100100
10101010
10101010
10110010
10111000
10111110
11000010
11000010
10111110
10111110
10111110
10111000
10111110
10111110
10111000
10111110
11010100
11100110
11011101
11000010
11001000
11011000
11011101
11100010
11101100
11101110
11101000
11101100
11101110
11101100
11100110
11011000
10100100
01010010
01001010
10010001
10110010
10111000
10111000
10110010
10110010
11010001
11101010
11110101
11110101
11110101
11111001
11110111
11110000
11110110
11110111
11101111
11101000
11101110
11101100
11010100
10110010
11000010
11101000
11111011
11111101
11101010
10111000
10110010
10110010
10110010
10110010
10111000
11000010
11000010
10111110
10110010
10110010
10110010
10110010
10110010
10111110
11001000
11001000
11001000
11011000
11101000
11101100
11011000
11001101
11011000
11100010
11100110
11100110
11101000
11101100
11101111
11110000
11110010
11101110
11011101
10110010
01010111
01001110
10010111
10101010
10110010
10111000
10111000
10111110
11011000
11101010
11110010
11110110
11111001
11111000
11110000
11101010
11111000
11111101
11111000
11101111
11100110
11100110
11011101
11000010
11010100
11110010
11111011
11111010
11101000
11001101
11001000
11000010
10111000
10101010
10110010
11000010
11001000
10111110
10100100
10100100
10110010
10110010
10101010
10101010
10111000
10111110
11000010
11001101
11011101
11101100
11100110
11010001
11010001
11011010
11011101
11010100
11011010
11101010
11101111
11101110
11101100
11101000
11100000
11000010
01011011
01011011
10110010
11000010
10111110
11000010
11001000
11001101
11011101
11101111
11110011
11110101
11111011
11111011
11101111
11100110
11111000
11111111
11111111
11111011
11110100
11101110
11100010
11010001
11011101
11110111
11111101
11111000
11100100
11010001
11001101
11001000
10111000
10110010
10111000
11001000
11010100
11001101
10110010
10110010
10111110
10111110
10110010
10100100
10100100
10110010
10111110
11000010
11010001
11100100
11101100
11011010
11000010
11001000
11001000
11001000
11010001
11100100
11101010
11101000
11100110
11100010
11100000
11001000
01011111
01010010
10011101
10110010
10101010
10101010
10111000
10111110
11001101
11100110
11101010
11101000
11110101
11110110
11100110
11011000
11101100
11110111
11111100
11111010
11110010
11100010
11010001
10111000
11010001
11110010
11110111
11101010
10111110
10101010
10101010
10100100
10011101
10011101
10101010
10111000
11001000
11000010
10100100
10010111
10101010
10110010
10011101
10001011
10000100
10001011
10010111
10100100
10100100
11001000
11011101
11001000
10100100
10101010
10110010
10111000
10111110
11001000
11001101
11010001
11010001
11001101
11010001
10111000
01010111
00100111
01001110
01011011
01011011
01010111
01010111
01011011
01100010
10000100
10001011
01110111
10010111
10101010
10001011
01101111
01110111
10010111
10111110
10111110
10010111
01110111
01100110
01011111
01101001
10010111
10100100
01101111
01010111
01010111
01010111
01010010
01010111
01010111
01010111
01011011
01100010
01011111
01010010
01001110
01010010
01011011
01010111
01001010
01000110
01001010
01001110
01010010
01010010
01011011
01101001
01100010
01010111
01011111
01100110
01101001
01100110
01100010
01011111
01011111
01100010
01100010
01100110
01011111
00110011
